-0.0000000 -0.0000000 -0.0000000 -0.0000000 -0.0000000 -0.0000000 -0.0000000 -0.0000000 -0.0000000 -0.0000000 -0.0000000 -0.0000000 -0.0000000 -0.0000000 -0.0000000 -0.0000000 -0.0000000 -0.0000000 -0.0000000 -0.0000000 -0.0000000 -0.0000000 -0.0000000 -0.0000000 -0.0000000 -0.0000000 -0.0000000 -0.0000000 -0.0000000 -0.0000000 -0.0000000 -0.0000000 -0.0000000 -0.0000000 -0.0000000 -0.0000000 -0.0000000 -0.0000000 -0.0000000 -0.0000000 -0.0000000 -0.0000000 -0.0000000 -0.0000000
-0.0000000 -0.0000000 -0.0000000 -0.0000000 -0.0000000 -0.0000000 -0.0000000 -0.0000000 -0.0000000 -0.0000000 -0.0000000 -0.0000000 -0.0000000 -0.0000000 -0.0000000 -0.0000000 -0.0000000 -0.0000000 -0.0000000 -0.0000000 -0.0000000 -0.0000000 -0.0000000 -0.0000000 -0.0000000 -0.0000000 -0.0000000 -0.0000000 -0.0000000 -0.0000000 -0.0000000 -0.0000000 -0.0000000 -0.0000000 -0.0000000 -0.0000000 -0.0000000 -0.0000000 -0.0000000 -0.0000000 -0.0000000 -0.0000000 -0.0000000 -0.0000000
-0.0000025 0.0000003 0.0000050 -0.0000727 0.0000077 -0.0000386 0.0000298 -0.0000097 0.0000040 -0.0000199 0.0000021 -0.0000033 -0.0000010 0.0000009 -0.0000074 -0.0000034 0.0000014 -0.0000172 -0.0000001 -0.0000189 0.0000013 -0.0000238 0.0000009 0.0000006 0.0000034 -0.0000202 0.0000045 -0.0000101 0.0000012 -0.0000231 0.0000008 -0.0000095 0.0000020 -0.0000027 -0.0000068 -0.0000067 -0.0000015 0.0000100 0.0000018 0.0000082 -0.0000031 0.0000197 -0.0000009 0.0000219
0.0000072 -0.0000188 0.0000311 -0.0001052 -0.0000004 -0.0000436 0.0000515 -0.0000164 0.0000105 -0.0000237 0.0000177 -0.0000237 0.0000126 -0.0000123 -0.0000057 -0.0000181 0.0000028 -0.0000164 0.0000017 -0.0000126 0.0000015 0.0000168 -0.0000002 0.0000088 0.0000003 -0.0000145 0.0000035 -0.0000088 0.0000067 -0.0000066 0.0000044 0.0000028 0.0000050 0.0000221 -0.0000100 0.0000109 -0.0000066 0.0000652 0.0000019 0.0000468 -0.0000097 0.0000745 -0.0000067 0.0000705
-0.0000107 -0.0000125 0.0000785 -0.0000341 0.0000094 -0.0000218 -0.0000266 0.0000429 0.0000103 -0.0000124 -0.0000026 0.0000042 0.0000235 -0.0000231 0.0000088 -0.0000083 -0.0000024 0.0000055 0.0000034 0.0000047 -0.0000014 0.0001005 0.0000045 0.0000124 -0.0000068 0.0000117 0.0000014 -0.0000029 0.0000027 0.0000450 0.0000013 0.0000336 0.0000054 0.0000678 -0.0000153 0.0000571 -0.0000106 0.0001355 -0.0000003 0.0000975 -0.0000128 0.0001262 -0.0000120 0.0001369
-0.0000084 -0.0000245 0.0000180 0.0000156 0.0000125 0.0000244 0.0000592 -0.0000418 0.0000160 0.0000078 0.0000048 -0.0000053 0.0000388 -0.0000386 -0.0000216 0.0000378 -0.0000079 0.0000289 -0.0000039 0.0000352 -0.0000125 0.0001810 -0.0000156 0.0000416 -0.0000115 0.0000373 0.0000004 0.0000062 0.0000004 0.0000975 -0.0000076 0.0000617 0.0000033 0.0000997 -0.0000147 0.0000878 -0.0000135 0.0001408 -0.0000053 0.0001084 -0.0000137 0.0000902 -0.0000074 0.0001087
0.0000013 -0.0000283 -0.0000299 0.0000220 0.0000034 0.0000444 0.0000345 -0.0000085 0.0000221 0.0000018 0.0000130 -0.0000164 0.0000397 -0.0000395 -0.0000182 0.0000169 -0.0000089 0.0000104 0.0000010 0.0000085 -0.0000153 0.0000688 -0.0000023 0.0000323 -0.0000060 0.0000073 0.0000035 0.0000066 0.0000042 0.0000164 -0.0000035 -0.0000071 0.0000015 0.0000131 -0.0000023 -0.0000117 -0.0000090 -0.0000322 -0.0000075 -0.0000209 -0.0000051 -0.0000807 0.0000033 -0.0000587
-0.0000028 -0.0000128 0.0000198 -0.0000511 -0.0000164 -0.0000286 0.0000275 0.0000305 0.0000194 -0.0000484 0.0000073 -0.0000091 -0.0000002 -0.0000021 -0.0000041 -0.0000565 0.0000068 -0.0000673 0.0000110 -0.0000761 0.0000108 -0.0001893 0.0000027 -0.0000057 0.0000106 -0.0000853 0.0000084 -0.0000099 0.0000201 -0.0001785 0.0000118 -0.0001404 0.0000075 -0.0001254 0.0000050 -0.0001682 0.0000001 -0.0002115 0.0000029 -0.0001767 0.0000024 -0.0001702 0.0000089 -0.0001672
0.0000003 -0.0000261 0.0000126 -0.0001077 0.0000107 -0.0001170 0.0000327 0.0000162 0.0000194 -0.0000977 -0.0000085 0.0000113 -0.0000181 0.0000144 -0.0000185 -0.0000893 0.0000122 -0.0001019 0.0000132 -0.0001063 0.0000198 -0.0002388 -0.0000247 0.0000180 0.0000142 -0.0001172 0.0000157 -0.0000023 0.0000318 -0.0002335 0.0000241 -0.0001725 0.0000158 -0.0001409 0.0000098 -0.0001952 0.0000033 -0.0002143 0.0000201 -0.0001773 0.0000128 -0.0001129 0.0000117 -0.0001525
0.0000021 -0.0000473 0.0000055 -0.0002320 0.0000104 -0.0000984 -0.0000969 0.0000782 0.0000210 -0.0001102 -0.0000216 0.0000278 -0.0000010 -0.0000005 -0.0000141 -0.0000986 0.0000133 -0.0000951 0.0000130 -0.0000993 0.0000219 -0.0001776 -0.0000358 0.0000363 0.0000110 -0.0001065 0.0000231 0.0000252 0.0000320 -0.0001948 0.0000316 -0.0001392 0.0000199 -0.0000973 0.0000119 -0.0001599 -0.0000006 -0.0001393 0.0000375 -0.0001145 0.0000228 -0.0000210 0.0000099 -0.0000928
-0.0000056 -0.0000606 0.0000313 -0.0002463 0.0000069 -0.0000782 -0.0000286 0.0000074 0.0000044 -0.0000867 -0.0000182 0.0000233 -0.0000080 0.0000085 0.0000062 -0.0000903 0.0000121 -0.0000741 0.0000170 -0.0000774 0.0000175 -0.0000696 -0.0000445 0.0000406 0.0000066 -0.0000747 0.0000306 0.0000518 0.0000316 -0.0001327 0.0000269 -0.0000904 0.0000233 -0.0000305 -0.0000000 -0.0000892 -0.0000068 -0.0000189 0.0000394 -0.0000211 0.0000180 0.0001079 0.0000026 0.0000040
-0.0000331 -0.0000712 0.0000825 -0.0002595 0.0000235 -0.0000674 0.0000222 -0.0000290 -0.0000018 -0.0000587 0.0000101 -0.0000138 -0.0000234 0.0000220 0.0000146 -0.0000807 0.0000087 -0.0000402 0.0000130 -0.0000351 0.0000070 0.0000529 -0.0000353 0.0000448 -0.0000025 -0.0000254 0.0000363 0.0000772 0.0000315 -0.0000601 0.0000181 -0.0000393 0.0000257 0.0000384 -0.0000094 -0.0000192 -0.0000120 0.0000954 0.0000319 0.0000639 0.0000018 0.0002369 -0.0000056 0.0001037
-0.0000405 -0.0000925 -0.0000531 -0.0000959 0.0000002 -0.0000234 -0.0001158 0.0000958 -0.0000016 -0.0000252 0.0000115 -0.0000153 -0.0000276 0.0000248 -0.0000143 -0.0000559 0.0000024 0.0000003 0.0000164 0.0000038 0.0000013 0.0001702 -0.0000164 0.0000316 -0.0000068 0.0000233 0.0000330 0.0001021 0.0000192 0.0000403 0.0000119 0.0000191 0.0000258 0.0001075 -0.0000150 0.0000563 -0.0000194 0.0002168 0.0000281 0.0001465 -0.0000074 0.0003375 -0.0000149 0.0002039
-0.0000304 -0.0001030 -0.0000444 -0.0000128 -0.0000232 0.0000596 -0.0001342 0.0001052 -0.0000276 0.0000293 0.0000023 -0.0000030 -0.0000226 0.0000221 -0.0000333 -0.0000012 -0.0000006 0.0000396 0.0000124 0.0000576 -0.0000047 0.0002863 -0.0000299 0.0000632 -0.0000149 0.0000842 0.0000316 0.0001182 0.0000103 0.0001394 0.0000075 0.0000750 0.0000260 0.0001812 -0.0000224 0.0001437 -0.0000189 0.0003367 0.0000162 0.0002472 -0.0000211 0.0004305 -0.0000240 0.0003018
-0.0000430 -0.0000985 0.0001077 -0.0001379 -0.0000272 0.0001002 -0.0001260 0.0001012 -0.0000325 0.0000716 0.0000473 -0.0000643 -0.0000156 0.0000156 -0.0000269 0.0000378 -0.0000057 0.0000852 0.0000033 0.0001192 -0.0000086 0.0004015 -0.0000483 0.0001001 -0.0000224 0.0001448 0.0000317 0.0001335 0.0000068 0.0002410 0.0000086 0.0001225 0.0000214 0.0002495 -0.0000227 0.0002297 -0.0000191 0.0003914 -0.0000041 0.0003238 -0.0000349 0.0004102 -0.0000236 0.0002981
-0.0000448 -0.0000909 0.0000126 -0.0000621 -0.0000273 0.0000797 -0.0000602 0.0000402 -0.0000295 0.0000935 0.0000381 -0.0000519 -0.0000408 0.0000387 -0.0000057 0.0000589 -0.0000015 0.0000707 0.0000019 0.0001022 -0.0000018 0.0002421 -0.0000684 0.0001049 -0.0000107 0.0001125 0.0000360 0.0001287 0.0000151 0.0001514 0.0000177 0.0000583 0.0000173 0.0001241 -0.0000030 0.0001146 -0.0000062 0.0001502 -0.0000039 0.0001563 -0.0000198 0.0001654 -0.0000147 0.0000905
-0.0000298 -0.0000641 0.0000494 -0.0000351 -0.0000070 0.0000354 0.0000246 -0.0001021 -0.0000169 0.0000391 0.0000047 -0.0000063 -0.0000733 0.0000689 0.0000123 -0.0000143 0.0000127 -0.0000098 0.0000043 0.0000203 0.0000138 -0.0000686 -0.0000667 0.0000774 0.0000032 0.0000246 0.0000363 0.0001070 0.0000352 -0.0000610 0.0000350 -0.0000741 0.0000219 -0.0000739 0.0000207 -0.0000972 0.0000095 -0.0001165 0.0000053 -0.0000707 -0.0000187 -0.0000173 -0.0000107 -0.0000794
-0.0000141 -0.0000492 -0.0000089 -0.0000558 0.0000335 -0.0000449 -0.0000614 -0.0000584 -0.0000015 -0.0000282 0.0000051 -0.0000068 -0.0000687 0.0000649 -0.0000061 -0.0000519 0.0000180 -0.0000545 0.0000162 -0.0000268 0.0000276 -0.0001325 -0.0000416 0.0000366 0.0000084 -0.0000106 0.0000341 0.0000938 0.0000430 -0.0001050 0.0000403 -0.0000995 0.0000285 -0.0001025 0.0000291 -0.0001366 0.0000167 -0.0001248 0.0000134 -0.0000893 -0.0000468 0.0000024 -0.0000142 -0.0000742
-0.0000082 -0.0000594 -0.0000139 -0.0001422 0.0000346 -0.0000864 -0.0000378 -0.0000412 -0.0000050 -0.0000331 -0.0000000 0.0000000 -0.0000629 0.0000593 -0.0000503 -0.0000129 0.0000199 -0.0000559 0.0000265 -0.0000308 0.0000302 -0.0000858 -0.0000549 0.0000089 0.0000065 -0.0000115 0.0000329 0.0000856 0.0000469 -0.0000792 0.0000353 -0.0000699 0.0000325 -0.0000415 0.0000261 -0.0001007 0.0000251 -0.0000616 0.0000185 -0.0000319 -0.0000602 0.0000813 -0.0000204 -0.0000002
-0.0000394 -0.0001179 0.0000053 -0.0001297 -0.0000422 -0.0000272 0.0000020 -0.0001087 -0.0000141 -0.0000331 0.0000083 -0.0000121 -0.0000764 0.0000720 -0.0000553 -0.0000245 0.0000207 -0.0000327 0.0000347 -0.0000119 0.0000173 0.0000317 -0.0000841 0.0000404 0.0000024 0.0000153 0.0000294 0.0000836 0.0000484 -0.0000119 0.0000324 -0.0000135 0.0000442 0.0000267 0.0000206 -0.0000284 0.0000194 0.0000752 0.0000080 0.0000736 -0.0000691 0.0001983 -0.0000325 0.0001110
-0.0000505 -0.0001449 -0.0000958 -0.0000600 -0.0000460 -0.0000001 -0.0000689 -0.0001005 -0.0000251 0.0000006 0.0000282 -0.0000388 -0.0000598 0.0000564 -0.0000292 -0.0000220 0.0000242 -0.0000071 0.0000286 0.0000248 0.0000140 0.0001707 -0.0000557 0.0000654 -0.0000036 0.0000663 0.0000266 0.0000878 0.0000353 0.0000956 0.0000230 0.0000600 0.0000398 0.0000793 0.0000135 0.0000566 0.0000119 0.0002168 -0.0000071 0.0001801 -0.0000892 0.0003365 -0.0000472 0.0002067
-0.0000154 -0.0001144 -0.0000827 -0.0000776 -0.0000074 0.0000259 -0.0000758 -0.0000359 -0.0000167 0.0000590 0.0000671 -0.0000901 -0.0000097 0.0000085 -0.0000389 0.0000198 0.0000220 0.0000245 0.0000235 0.0000689 0.0000107 0.0002917 -0.0000328 0.0000924 -0.0000119 0.0001193 0.0000217 0.0000989 0.0000227 0.0002034 0.0000095 0.0001225 0.0000252 0.0001640 0.0000084 0.0001407 0.0000078 0.0003445 -0.0000180 0.0002851 -0.0000989 0.0004512 -0.0000637 0.0003042
-0.0000243 -0.0001072 0.0000320 -0.0001553 -0.0000321 0.0000848 -0.0001308 0.0000611 -0.0000145 0.0000866 0.0000903 -0.0001213 0.0000145 -0.0000147 0.0000003 0.0000030 0.0000126 0.0000383 0.0000208 0.0000808 0.0000185 0.0002242 -0.0000595 0.0001552 -0.0000053 0.0001101 0.0000198 0.0000990 0.0000287 0.0001623 0.0000100 0.0000973 0.0000205 0.0000959 0.0000243 0.0000830 0.0000143 0.0001927 -0.0000244 0.0002018 -0.0000915 0.0003033 -0.0000636 0.0001795
-0.0000323 -0.0000753 0.0000645 -0.0001322 -0.0000348 0.0000257 -0.0000408 -0.0000068 -0.0000168 0.0000600 0.0000806 -0.0001081 0.0000057 -0.0000063 0.0000236 -0.0000357 0.0000156 -0.0000041 0.0000191 0.0000364 0.0000291 0.0000200 -0.0000606 0.0001655 0.0000052 0.0000547 0.0000186 0.0000744 0.0000230 0.0000463 0.0000200 0.0000115 0.0000232 -0.0000538 0.0000413 -0.0000434 0.0000285 -0.0000489 -0.0000368 0.0000483 -0.0000858 0.0001157 -0.0000552 -0.0000032
-0.0000143 -0.0000701 -0.0000825 0.0000240 -0.0000164 -0.0000503 0.0000989 -0.0001205 -0.0000104 0.0000151 0.0000803 -0.0001073 0.0000052 -0.0000053 -0.0000067 -0.0000340 0.0000191 -0.0000380 0.0000253 0.0000032 0.0000255 -0.0000277 -0.0000390 0.0001409 0.0000066 0.0000273 0.0000199 0.0000583 0.0000125 0.0000257 0.0000253 -0.0000228 0.0000274 -0.0000710 0.0000335 -0.0000595 0.0000276 -0.0000495 -0.0000461 0.0000552 -0.0000793 0.0001135 -0.0000491 0.0000160
-0.0000193 -0.0000866 -0.0001800 0.0001163 -0.0000045 -0.0000637 0.0000326 -0.0000239 -0.0000089 -0.0000069 0.0000763 -0.0001019 0.0000141 -0.0000131 -0.0000063 -0.0000442 0.0000164 -0.0000295 0.0000252 0.0000106 0.0000169 0.0000256 -0.0000407 0.0001202 -0.0000006 0.0000321 0.0000182 0.0000549 0.0000021 0.0000683 0.0000141 0.0000116 0.0000263 -0.0000284 0.0000224 -0.0000167 0.0000247 0.0000246 -0.0000486 0.0001121 -0.0000847 0.0001584 -0.0000470 0.0000866
-0.0000181 -0.0000964 -0.0000181 -0.0000800 -0.0000029 -0.0000507 -0.0000386 0.0000364 -0.0000147 -0.0000009 0.0000608 -0.0000811 0.0000141 -0.0000137 -0.0000117 -0.0000460 0.0000122 -0.0000011 0.0000178 0.0000452 0.0000092 0.0001328 -0.0000442 0.0001077 -0.0000107 0.0000647 0.0000125 0.0000530 -0.0000054 0.0001490 -0.0000034 0.0000763 0.0000186 0.0000506 0.0000053 0.0000709 0.0000241 0.0001564 -0.0000505 0.0002068 -0.0001026 0.0002613 -0.0000564 0.0001919
-0.0000268 -0.0000959 0.0000898 -0.0002508 -0.0000156 -0.0000070 -0.0001147 0.0000933 -0.0000258 0.0000375 0.0000776 -0.0001033 0.0000199 -0.0000197 -0.0000246 -0.0000122 0.0000040 0.0000369 0.0000166 0.0000899 -0.0000000 0.0002696 -0.0000344 0.0000908 -0.0000203 0.0001054 0.0000129 0.0000583 -0.0000060 0.0002255 -0.0000170 0.0001271 0.0000138 0.0001349 -0.0000136 0.0001706 0.0000157 0.0002875 -0.0000571 0.0003072 -0.0001223 0.0003764 -0.0000639 0.0002859
-0.0000401 -0.0001147 -0.0000464 -0.0001058 -0.0000226 0.0000324 -0.0000316 0.0000031 -0.0000373 0.0000657 0.0000960 -0.0001286 -0.0000157 0.0000146 -0.0000232 0.0000141 0.0000004 0.0000564 0.0000165 0.0001079 -0.0000095 0.0002706 -0.0000367 0.0000253 -0.0000278 0.0001109 0.0000153 0.0000583 -0.0000084 0.0002050 -0.0000164 0.0001059 0.0000160 0.0001089 -0.0000094 0.0001403 0.0000148 0.0001593 -0.0000768 0.0002417 -0.0001299 0.0002477 -0.0000596 0.0001624
-0.0000493 -0.0001530 -0.0001229 -0.0001153 -0.0000294 0.0000058 -0.0000567 -0.0001018 -0.0000263 0.0000060 0.0000517 -0.0000700 -0.0000741 0.0000705 -0.0000351 -0.0000012 0.0000048 0.0000155 0.0000098 0.0000728 0.0000010 0.0000720 -0.0000669 -0.0000388 -0.0000226 0.0000514 0.0000177 0.0000430 -0.0000108 0.0000739 -0.0000075 0.0000029 0.0000183 0.0000080 0.0000067 -0.0000102 0.0000240 -0.0000918 -0.0000851 0.0000638 -0.0001128 0.0000015 -0.0000525 -0.0000343
-0.0000605 -0.0001594 -0.0000228 -0.0002888 -0.0000026 -0.0000830 -0.0001408 -0.0000712 -0.0000217 -0.0000642 0.0000022 -0.0000040 -0.0000903 0.0000857 -0.0000232 -0.0000592 0.0000049 -0.0000320 0.0000060 0.0000289 0.0000066 -0.0000545 -0.0000883 -0.0000720 -0.0000184 -0.0000009 0.0000169 0.0000335 -0.0000116 -0.0000097 -0.0000075 -0.0000461 0.0000173 -0.0000242 -0.0000007 -0.0000631 0.0000305 -0.0001293 -0.0000807 0.0000200 -0.0000994 -0.0000279 -0.0000556 -0.0000369
-0.0000608 -0.0001491 -0.0000200 -0.0002794 -0.0000202 -0.0000631 -0.0000701 -0.0001323 -0.0000243 -0.0000723 -0.0000152 0.0000191 -0.0001094 0.0001039 -0.0000342 -0.0000930 -0.0000028 -0.0000352 0.0000012 0.0000251 -0.0000039 -0.0000221 -0.0000842 -0.0001094 -0.0000239 -0.0000118 0.0000174 0.0000337 -0.0000049 -0.0000228 -0.0000076 -0.0000245 0.0000169 0.0000041 -0.0000230 -0.0000293 0.0000317 -0.0000698 -0.0000806 0.0000687 -0.0001010 0.0000323 -0.0000554 0.0000150
-0.0000627 -0.0001484 -0.0001111 -0.0001750 -0.0000486 -0.0000279 -0.0001205 -0.0001136 -0.0000123 -0.0000721 -0.0000226 0.0000292 -0.0001560 0.0001487 -0.0000596 -0.0000656 -0.0000086 -0.0000169 -0.0000037 0.0000461 -0.0000131 0.0000635 -0.0000747 -0.0001503 -0.0000344 0.0000040 0.0000209 0.0000317 -0.0000143 0.0000216 -0.0000072 0.0000105 0.0000126 0.0000733 -0.0000404 0.0000275 0.0000246 0.0000448 -0.0000831 0.0001512 -0.0001238 0.0001496 -0.0000634 0.0001103
-0.0000677 -0.0001648 -0.0000766 -0.0001752 -0.0000272 -0.0000252 -0.0000748 -0.0001300 -0.0000202 -0.0000391 -0.0000189 0.0000237 -0.0001546 0.0001478 -0.0000857 0.0000069 -0.0000148 0.0000185 -0.0000024 0.0000731 -0.0000201 0.0001787 -0.0000751 -0.0001643 -0.0000447 0.0000451 0.0000204 0.0000511 -0.0000304 0.0000978 -0.0000133 0.0000526 0.0000088 0.0001575 -0.0000522 0.0000988 0.0000190 0.0001612 -0.0000953 0.0002410 -0.0001475 0.0002626 -0.0000741 0.0002121
-0.0000833 -0.0001936 -0.0000988 -0.0001953 -0.0000152 -0.0000256 -0.0000593 -0.0001118 -0.0000191 -0.0000043 -0.0000167 0.0000214 -0.0001175 0.0001124 -0.0001159 0.0000258 -0.0000249 0.0000599 -0.0000050 0.0001011 -0.0000339 0.0002926 -0.0000704 -0.0001965 -0.0000482 0.0000865 0.0000284 0.0000902 -0.0000343 0.0001426 -0.0000220 0.0000921 0.0000064 0.0001852 -0.0000457 0.0001161 0.0000160 0.0001216 -0.0001084 0.0002305 -0.0001420 0.0001596 -0.0000656 0.0001273
-0.0000937 -0.0002300 -0.0000963 -0.0002070 -0.0000321 -0.0000155 -0.0000647 -0.0001790 -0.0000067 -0.0000244 -0.0000652 0.0000868 -0.0001415 0.0001356 -0.0000817 -0.0000677 -0.0000233 0.0000236 -0.0000046 0.0000632 -0.0000295 0.0001310 -0.0001229 -0.0003124 -0.0000423 0.0000290 0.0000446 0.0000767 -0.0000234 0.0000026 -0.0000116 0.0000281 0.0000068 0.0000962 -0.0000358 -0.0000232 0.0000218 -0.0001012 -0.0001009 0.0000401 -0.0001099 -0.0000988 -0.0000505 -0.0000878
-0.0000807 -0.0002607 -0.0000247 -0.0002666 -0.0000560 -0.0000473 -0.0000435 -0.0004484 0.0000011 -0.0001211 -0.0001332 0.0001755 -0.0002236 0.0002122 -0.0000575 -0.0001465 -0.0000107 -0.0000708 0.0000070 -0.0000311 -0.0000143 -0.0001669 -0.0002177 -0.0005256 -0.0000449 -0.0000987 0.0000463 -0.0000165 -0.0000052 -0.0002158 0.0000101 -0.0000983 0.0000147 0.0000068 -0.0000401 -0.0001734 0.0000313 -0.0002593 -0.0000844 -0.0001172 -0.0000968 -0.0001998 -0.0000473 -0.0001685
-0.0000741 -0.0002654 0.0000235 -0.0003944 -0.0000143 -0.0001641 -0.0001802 -0.0005466 -0.0000028 -0.0001990 -0.0001634 0.0002144 -0.0002800 0.0002644 -0.0000536 -0.0001975 -0.0000062 -0.0001110 0.0000150 -0.0000716 -0.0000157 -0.0002228 -0.0002529 -0.0007003 -0.0000496 -0.0001609 0.0000388 -0.0000875 0.0000019 -0.0002738 0.0000226 -0.0001417 0.0000184 0.0000088 -0.0000436 -0.0001941 0.0000327 -0.0002716 -0.0000777 -0.0001238 -0.0001041 -0.0001743 -0.0000434 -0.0001422
-0.0000929 -0.0002772 0.0000201 -0.0004432 -0.0000083 -0.0001905 -0.0003004 -0.0005196 -0.0000171 -0.0002041 -0.0001531 0.0001992 -0.0003005 0.0002836 -0.0000650 -0.0002463 -0.0000029 -0.0001057 0.0000155 -0.0000683 -0.0000206 -0.0001649 -0.0002593 -0.0007067 -0.0000477 -0.0001604 0.0000419 -0.0001021 0.0000100 -0.0002503 0.0000310 -0.0001101 0.0000247 0.0000875 -0.0000507 -0.0001581 0.0000278 -0.0001977 -0.0000738 -0.0000741 -0.0001183 -0.0000829 -0.0000417 -0.0000639
-0.0001156 -0.0003354 -0.0000659 -0.0004884 -0.0000316 -0.0001608 -0.0003945 -0.0004687 -0.0000199 -0.0001983 -0.0001199 0.0001539 -0.0003002 0.0002823 -0.0000549 -0.0002710 -0.0000020 -0.0000796 0.0000095 -0.0000438 -0.0000305 -0.0000548 -0.0002710 -0.0006638 -0.0000525 -0.0001293 0.0000424 -0.0001040 0.0000223 -0.0001972 0.0000321 -0.0000516 0.0000283 0.0001747 -0.0000610 -0.0000969 0.0000194 -0.0000786 -0.0000690 0.0000042 -0.0001311 0.0000335 -0.0000464 0.0000384
-0.0001137 -0.0003649 -0.0001537 -0.0004410 -0.0000485 -0.0000881 -0.0002629 -0.0005981 -0.0000269 -0.0001666 -0.0001224 0.0001575 -0.0003072 0.0002903 -0.0000441 -0.0002698 -0.0000041 -0.0000560 0.0000002 -0.0000066 -0.0000358 0.0000699 -0.0002537 -0.0006901 -0.0000592 -0.0000874 0.0000400 -0.0001056 0.0000202 -0.0001215 0.0000333 0.0000116 0.0000291 0.0002189 -0.0000667 -0.0000284 0.0000144 0.0000483 -0.0000724 0.0000881 -0.0001272 0.0001221 -0.0000535 0.0001089
-0.0001074 -0.0003439 -0.0001249 -0.0003024 -0.0000656 -0.0000486 -0.0001986 -0.0006497 -0.0000217 -0.0001318 -0.0001225 0.0001587 -0.0002198 0.0002106 -0.0000543 -0.0002390 -0.0000088 -0.0000637 -0.0000157 -0.0000050 -0.0000341 0.0000277 -0.0002104 -0.0005698 -0.0000442 -0.0001068 0.0000641 0.0000369 0.0000338 -0.0001650 0.0000385 -0.0000360 0.0000293 0.0001359 -0.0000570 -0.0000987 0.0000134 -0.0000786 -0.0000803 -0.0000150 -0.0001364 -0.0000320 -0.0000953 -0.0002027
-0.0001023 -0.0003375 0.0000547 -0.0004959 -0.0000330 -0.0001624 -0.0002513 -0.0004812 -0.0000117 -0.0001616 -0.0001228 0.0001614 0.0000152 -0.0000131 -0.0000765 -0.0002637 -0.0000111 -0.0001360 -0.0000187 -0.0000809 -0.0000266 -0.0001771 -0.0001790 -0.0002898 -0.0000108 -0.0001866 0.0001165 0.0003288 0.0000564 -0.0003086 0.0000599 -0.0001837 0.0000276 -0.0000811 -0.0000411 -0.0002562 0.0000204 -0.0003318 -0.0000764 -0.0002485 -0.0001437 -0.0002435 -0.0001624 -0.0006651
-0.0000769 -0.0003296 -0.0001271 -0.0005268 0.0000319 -0.0002921 -0.0002381 -0.0004046 -0.0000000 -0.0002146 -0.0001154 0.0001528 0.0002208 -0.0002137 -0.0000646 -0.0003594 -0.0000053 -0.0002112 -0.0000110 -0.0001526 -0.0000141 -0.0002603 -0.0001425 -0.0000974 0.0000172 -0.0002293 0.0001633 0.0005468 0.0000877 -0.0003720 0.0000893 -0.0002395 0.0000294 -0.0002358 -0.0000326 -0.0002797 0.0000261 -0.0003409 -0.0000564 -0.0003171 -0.0001456 -0.0002005 -0.0002086 -0.0008084
-0.0000601 -0.0002606 -0.0002535 -0.0003562 0.0000643 -0.0003230 -0.0001811 -0.0004742 0.0000172 -0.0002276 -0.0000749 0.0000976 0.0002903 -0.0002811 -0.0000319 -0.0003988 0.0000039 -0.0002356 -0.0000144 -0.0001630 0.0000002 -0.0001862 -0.0001162 0.0000232 0.0000349 -0.0002267 0.0001813 0.0006380 0.0001282 -0.0003224 0.0001082 -0.0001920 0.0000393 -0.0002833 -0.0000191 -0.0001961 0.0000299 -0.0002074 -0.0000224 -0.0002707 -0.0001464 -0.0000828 -0.0002316 -0.0008130
-0.0000208 -0.0001082 0.0001325 -0.0004852 0.0000311 -0.0003123 -0.0001923 -0.0005568 0.0000085 -0.0002196 -0.0000454 0.0000568 0.0002598 -0.0002498 -0.0000376 -0.0003484 0.0000144 -0.0002361 -0.0000102 -0.0001423 0.0000062 -0.0000728 -0.0001293 0.0000200 0.0000281 -0.0002318 0.0001719 0.0006473 0.0001505 -0.0002432 0.0000896 -0.0002058 0.0000409 -0.0002124 -0.0000160 -0.0001272 0.0000283 -0.0000866 0.0000032 -0.0001864 -0.0001563 0.0000822 -0.0002454 -0.0007261
-0.0000429 -0.0001098 0.0000833 -0.0003585 -0.0000169 -0.0003137 -0.0001847 -0.0006367 0.0000123 -0.0002572 -0.0000848 0.0001040 0.0000691 -0.0000660 -0.0001775 -0.0006077 0.0000205 -0.0002237 0.0000154 -0.0000922 0.0000053 0.0000199 -0.0002778 -0.0007450 -0.0000649 -0.0003298 0.0001533 0.0005483 0.0001319 -0.0002666 -0.0000069 -0.0004572 0.0000167 -0.0000393 -0.0000788 -0.0002188 0.0000100 -0.0000180 0.0000034 -0.0000991 -0.0001473 0.0002916 -0.0002451 -0.0005740
-0.0003592 -0.0006078 0.0000805 0.0002248 -0.0001411 -0.0005109 -0.0003854 -0.0011636 -0.0000047 -0.0003713 0.0002916 -0.0004428 -0.0005191 0.0004856 -0.0006073 -0.0016744 0.0000302 -0.0002088 0.0000951 -0.0000446 0.0000242 0.0000958 -0.0007482 -0.0023269 -0.0002442 -0.0004956 0.0001212 0.0002778 0.0000826 -0.0003514 -0.0001516 -0.0007973 -0.0000166 0.0001545 -0.0001605 -0.0003554 -0.0000257 0.0000183 0.0000019 0.0000017 -0.0001149 0.0004406 -0.0002259 -0.0004546
-0.0007379 -0.0011854 0.0005413 0.0006592 -0.0002880 -0.0008289 -0.0008820 -0.0018437 -0.0000526 -0.0005004 0.0009457 -0.0013789 -0.0010575 0.0009817 -0.0010122 -0.0027350 0.0000519 -0.0002177 0.0001841 -0.0000576 0.0000666 -0.0000357 -0.0011783 -0.0033512 -0.0003463 -0.0006173 0.0001035 0.0000738 0.0000597 -0.0005328 -0.0002284 -0.0010563 -0.0000369 0.0001461 -0.0001781 -0.0005438 -0.0000472 -0.0002417 0.0000118 -0.0000649 -0.0000899 0.0003185 -0.0002055 -0.0005435
-0.0008686 -0.0013768 0.0007441 0.0007335 -0.0003425 -0.0009802 -0.0010054 -0.0019818 -0.0000357 -0.0005714 0.0011389 -0.0016532 -0.0011214 0.0010392 -0.0011204 -0.0030483 0.0000810 -0.0002471 0.0002263 -0.0001151 0.0000890 -0.0002840 -0.0012393 -0.0034423 -0.0003311 -0.0006789 0.0001165 0.0000620 0.0000678 -0.0007401 -0.0002167 -0.0011959 -0.0000368 0.0000199 -0.0001712 -0.0007426 -0.0000414 -0.0005298 0.0000318 -0.0002372 -0.0000773 0.0001505 -0.0001917 -0.0006514
-0.0008702 -0.0013241 0.0007456 0.0007518 -0.0003239 -0.0010573 -0.0008943 -0.0020129 -0.0000115 -0.0005716 0.0011599 -0.0016801 -0.0010735 0.0009948 -0.0011157 -0.0031015 0.0000968 -0.0002535 0.0002351 -0.0001434 0.0000950 -0.0003309 -0.0012483 -0.0034139 -0.0003060 -0.0006961 0.0001290 0.0000340 0.0000848 -0.0007789 -0.0001788 -0.0011639 -0.0000275 -0.0000091 -0.0001630 -0.0007736 -0.0000305 -0.0005412 0.0000643 -0.0002896 -0.0000812 0.0001505 -0.0001807 -0.0006150
-0.0008545 -0.0012711 0.0008245 0.0006272 -0.0003350 -0.0010751 -0.0009569 -0.0021699 -0.0000159 -0.0005743 0.0012124 -0.0017543 -0.0010420 0.0009660 -0.0010626 -0.0031073 0.0001080 -0.0002626 0.0002294 -0.0001480 0.0001126 -0.0002643 -0.0013636 -0.0035573 -0.0003061 -0.0006977 0.0001169 -0.0001140 0.0001009 -0.0007376 -0.0001391 -0.0010487 -0.0000141 0.0000207 -0.0001461 -0.0007326 -0.0000207 -0.0004667 0.0000684 -0.0002638 -0.0000672 0.0002172 -0.0001518 -0.0004604
-0.0008497 -0.0013136 0.0008464 0.0004158 -0.0003581 -0.0010658 -0.0011479 -0.0024274 -0.0000291 -0.0006024 0.0013320 -0.0019283 -0.0011003 0.0010175 -0.0010490 -0.0030664 0.0001070 -0.0002677 0.0002169 -0.0001346 0.0001125 -0.0001705 -0.0015654 -0.0038354 -0.0003300 -0.0007043 0.0000818 -0.0003798 0.0001048 -0.0007129 -0.0001252 -0.0009705 -0.0000054 0.0001384 -0.0001525 -0.0006957 -0.0000261 -0.0003814 0.0000557 -0.0001920 -0.0000526 0.0003266 -0.0000982 -0.0001847
-0.0008304 -0.0012748 0.0008755 0.0004170 -0.0003261 -0.0010672 -0.0011815 -0.0023902 -0.0000297 -0.0005635 0.0013893 -0.0020107 -0.0011312 0.0010452 -0.0010194 -0.0029935 0.0001034 -0.0002458 0.0002112 -0.0001068 0.0000796 -0.0001517 -0.0015853 -0.0037512 -0.0003427 -0.0006755 0.0000599 -0.0004539 0.0000692 -0.0006964 -0.0001593 -0.0010056 -0.0000130 0.0003137 -0.0001990 -0.0007107 -0.0000528 -0.0003675 0.0000562 -0.0000921 -0.0000553 0.0004186 -0.0000605 0.0000545
-0.0007809 -0.0011474 0.0008168 0.0006313 -0.0003155 -0.0010000 -0.0009922 -0.0018887 0.0000178 -0.0004601 0.0012734 -0.0018428 -0.0010008 0.0009283 -0.0009697 -0.0029480 0.0001191 -0.0002307 0.0002189 -0.0001127 0.0000389 -0.0003482 -0.0013807 -0.0032710 -0.0003178 -0.0006648 0.0000706 -0.0002887 0.0000284 -0.0007928 -0.0002106 -0.0011787 -0.0000248 0.0003875 -0.0002306 -0.0008929 -0.0000814 -0.0006197 0.0000532 -0.0001422 -0.0000418 0.0002575 -0.0000367 0.0000026
-0.0007231 -0.0009933 0.0007559 0.0007922 -0.0002999 -0.0010597 -0.0007303 -0.0014729 0.0000634 -0.0004263 0.0011709 -0.0016933 -0.0009125 0.0008485 -0.0009783 -0.0029454 0.0001425 -0.0002544 0.0002278 -0.0001620 0.0000247 -0.0006771 -0.0012309 -0.0029151 -0.0002873 -0.0007110 0.0000895 -0.0001771 0.0000153 -0.0009789 -0.0002319 -0.0013744 -0.0000348 0.0003585 -0.0002313 -0.0011427 -0.0000982 -0.0009622 0.0000542 -0.0003159 -0.0000164 0.0000135 -0.0000188 -0.0001598
-0.0007076 -0.0009393 0.0008161 0.0007130 -0.0002697 -0.0011700 -0.0006184 -0.0012696 0.0000735 -0.0004702 0.0011330 -0.0016374 -0.0008960 0.0008329 -0.0009893 -0.0029458 0.0001640 -0.0002811 0.0002444 -0.0002082 0.0000264 -0.0008640 -0.0011673 -0.0028330 -0.0002780 -0.0007373 0.0000877 -0.0001724 0.0000232 -0.0010552 -0.0002265 -0.0014387 -0.0000418 0.0003512 -0.0002265 -0.0012267 -0.0001145 -0.0010651 0.0000582 -0.0003547 -0.0000364 0.0000046 -0.0000149 -0.0001620
-0.0007217 -0.0010207 0.0008153 0.0005777 -0.0002795 -0.0011711 -0.0005745 -0.0012517 0.0000643 -0.0005143 0.0011461 -0.0016564 -0.0008876 0.0008246 -0.0009888 -0.0029494 0.0001711 -0.0002841 0.0002619 -0.0002217 0.0000211 -0.0008849 -0.0011617 -0.0028359 -0.0002782 -0.0007414 0.0000749 -0.0002067 0.0000362 -0.0010372 -0.0002226 -0.0014207 -0.0000383 0.0003739 -0.0002285 -0.0012060 -0.0001253 -0.0010666 0.0000572 -0.0003068 -0.0000616 0.0000747 -0.0000149 -0.0000980
-0.0007171 -0.0010646 0.0008524 0.0005276 -0.0002980 -0.0011395 -0.0005085 -0.0013005 0.0000402 -0.0005190 0.0011608 -0.0016764 -0.0008698 0.0008079 -0.0009647 -0.0029297 0.0001685 -0.0002604 0.0002687 -0.0002062 0.0000085 -0.0008597 -0.0011798 -0.0027618 -0.0002860 -0.0007198 0.0000648 -0.0002085 0.0000289 -0.0009759 -0.0002358 -0.0013935 -0.0000397 0.0004418 -0.0002465 -0.0011600 -0.0001423 -0.0010349 0.0000545 -0.0002213 -0.0000695 0.0001937 -0.0000234 0.0000184
-0.0007002 -0.0010300 0.0007660 0.0006047 -0.0002834 -0.0011027 -0.0005558 -0.0012120 0.0000375 -0.0004951 0.0011415 -0.0016487 -0.0008659 0.0008036 -0.0009300 -0.0028922 0.0001721 -0.0002173 0.0002710 -0.0001678 -0.0000111 -0.0007987 -0.0011848 -0.0027123 -0.0002950 -0.0006690 0.0000659 -0.0001775 0.0000165 -0.0009047 -0.0002518 -0.0013494 -0.0000531 0.0005392 -0.0002648 -0.0010985 -0.0001657 -0.0009681 0.0000439 -0.0001134 -0.0000905 0.0003395 -0.0000276 0.0001336
-0.0006952 -0.0009753 0.0007287 0.0005954 -0.0002802 -0.0010706 -0.0006173 -0.0010307 0.0000480 -0.0004411 0.0010993 -0.0015897 -0.0008681 0.0008054 -0.0009468 -0.0028133 0.0001743 -0.0001698 0.0002702 -0.0001219 -0.0000322 -0.0007241 -0.0011726 -0.0026322 -0.0002950 -0.0006135 0.0000777 -0.0001173 -0.0000029 -0.0008449 -0.0002616 -0.0013251 -0.0000644 0.0005923 -0.0002684 -0.0010898 -0.0001778 -0.0010171 0.0000306 -0.0001069 -0.0000946 0.0002681 -0.0000206 0.0000730
-0.0006753 -0.0008928 0.0008463 0.0005998 -0.0002521 -0.0010910 -0.0005470 -0.0009570 0.0000578 -0.0004318 0.0010723 -0.0015498 -0.0008217 0.0007635 -0.0009317 -0.0028160 0.0001806 -0.0001911 0.0002686 -0.0001421 -0.0000424 -0.0008803 -0.0011099 -0.0025445 -0.0002822 -0.0006445 0.0000905 -0.0000743 -0.0000048 -0.0009568 -0.0002551 -0.0014280 -0.0000671 0.0005177 -0.0002561 -0.0012443 -0.0001758 -0.0012427 0.0000220 -0.0002730 -0.0000933 0.0000282 -0.0000133 -0.0001178
-0.0006446 -0.0008333 0.0009048 0.0005663 -0.0002005 -0.0011932 -0.0005421 -0.0008623 0.0000765 -0.0004857 0.0010336 -0.0014941 -0.0007718 0.0007171 -0.0008774 -0.0029152 0.0001950 -0.0002636 0.0002685 -0.0002178 -0.0000333 -0.0011663 -0.0010423 -0.0024527 -0.0002567 -0.0007298 0.0001008 -0.0000522 0.0000006 -0.0011403 -0.0002451 -0.0015541 -0.0000696 0.0004283 -0.0002519 -0.0014124 -0.0001756 -0.0014108 0.0000247 -0.0004017 -0.0001010 -0.0000509 -0.0000067 -0.0001882
-0.0006158 -0.0008538 0.0008409 0.0005735 -0.0001786 -0.0012321 -0.0005340 -0.0007788 0.0000794 -0.0005055 0.0010184 -0.0014716 -0.0007693 0.0007129 -0.0009002 -0.0029167 0.0002085 -0.0002891 0.0002740 -0.0002527 -0.0000229 -0.0012468 -0.0009990 -0.0024117 -0.0002401 -0.0007482 0.0001048 -0.0000389 -0.0000005 -0.0011603 -0.0002322 -0.0015521 -0.0000698 0.0004098 -0.0002459 -0.0014394 -0.0001810 -0.0014384 0.0000369 -0.0003968 -0.0001085 -0.0000057 -0.0000054 -0.0001489
-0.0006195 -0.0008936 0.0006985 0.0006805 -0.0001944 -0.0012027 -0.0003863 -0.0009036 0.0000746 -0.0005108 0.0010063 -0.0014540 -0.0007694 0.0007140 -0.0009072 -0.0028860 0.0002154 -0.0002767 0.0002829 -0.0002445 -0.0000216 -0.0011904 -0.0009956 -0.0024265 -0.0002392 -0.0007231 0.0001034 -0.0000541 0.0000076 -0.0010918 -0.0002121 -0.0014840 -0.0000667 0.0004218 -0.0002436 -0.0013798 -0.0001851 -0.0013712 0.0000407 -0.0003305 -0.0001078 0.0000861 -0.0000110 -0.0000565
-0.0006518 -0.0009346 0.0006366 0.0006822 -0.0001912 -0.0011958 -0.0003241 -0.0010527 0.0000659 -0.0005001 0.0009967 -0.0014414 -0.0007698 0.0007147 -0.0008936 -0.0028653 0.0002109 -0.0002380 0.0002863 -0.0002126 -0.0000278 -0.0010793 -0.0009954 -0.0024327 -0.0002463 -0.0006717 0.0001004 -0.0000659 0.0000153 -0.0010004 -0.0002122 -0.0013982 -0.0000705 0.0004816 -0.0002513 -0.0012832 -0.0001880 -0.0012617 0.0000341 -0.0002275 -0.0001261 0.0002134 -0.0000220 0.0000572
-0.0006563 -0.0009632 0.0006848 0.0005758 -0.0001820 -0.0011679 -0.0004429 -0.0009709 0.0000533 -0.0004614 0.0010053 -0.0014533 -0.0007723 0.0007156 -0.0009095 -0.0027792 0.0002075 -0.0001933 0.0002862 -0.0001656 -0.0000320 -0.0009697 -0.0010179 -0.0023887 -0.0002499 -0.0006124 0.0000967 -0.0000604 0.0000063 -0.0009026 -0.0002313 -0.0013072 -0.0000742 0.0005537 -0.0002583 -0.0011817 -0.0001897 -0.0011520 0.0000247 -0.0001201 -0.0001439 0.0003297 -0.0000304 0.0001654
-0.0006511 -0.0009570 0.0006267 0.0006251 -0.0002773 -0.0010473 -0.0005292 -0.0008626 0.0000350 -0.0004048 0.0010047 -0.0014516 -0.0007729 0.0007157 -0.0008880 -0.0026899 0.0002099 -0.0001620 0.0002841 -0.0001182 -0.0000364 -0.0008959 -0.0010295 -0.0023405 -0.0002487 -0.0005799 0.0000955 -0.0000553 -0.0000027 -0.0008526 -0.0002363 -0.0012803 -0.0000794 0.0005385 -0.0002406 -0.0011874 -0.0001943 -0.0012150 0.0000136 -0.0001680 -0.0001317 0.0001867 -0.0000244 0.0000576
-0.0006478 -0.0009246 0.0006006 0.0006331 -0.0003239 -0.0009820 -0.0005007 -0.0009205 0.0000375 -0.0004229 0.0009949 -0.0014385 -0.0007680 0.0007107 -0.0008636 -0.0026782 0.0002149 -0.0002006 0.0002777 -0.0001430 -0.0000286 -0.0010512 -0.0010087 -0.0023034 -0.0002391 -0.0006228 0.0000931 -0.0000521 -0.0000078 -0.0009437 -0.0002211 -0.0013884 -0.0000840 0.0004552 -0.0002179 -0.0013243 -0.0001875 -0.0014283 0.0000091 -0.0003454 -0.0001226 -0.0000482 -0.0000143 -0.0001592
-0.0006473 -0.0008788 0.0006944 0.0004463 -0.0002483 -0.0010722 -0.0005285 -0.0008633 0.0000375 -0.0004786 0.0009807 -0.0014182 -0.0007396 0.0006848 -0.0008839 -0.0026649 0.0002238 -0.0002658 0.0002754 -0.0001999 -0.0000221 -0.0012561 -0.0009912 -0.0022571 -0.0002208 -0.0006803 0.0000947 -0.0000468 -0.0000087 -0.0010518 -0.0002122 -0.0014726 -0.0000822 0.0004184 -0.0002117 -0.0013957 -0.0001813 -0.0015074 0.0000134 -0.0004044 -0.0001309 -0.0000530 -0.0000152 -0.0001781
-0.0006378 -0.0008507 0.0007806 0.0003751 -0.0002222 -0.0011315 -0.0005396 -0.0007812 0.0000440 -0.0004981 0.0009516 -0.0013761 -0.0007178 0.0006665 -0.0008835 -0.0026364 0.0002301 -0.0002701 0.0002876 -0.0002155 -0.0000273 -0.0012788 -0.0009578 -0.0022095 -0.0002148 -0.0006730 0.0000976 -0.0000364 -0.0000078 -0.0010436 -0.0002123 -0.0014597 -0.0000827 0.0004424 -0.0002109 -0.0013737 -0.0001781 -0.0014834 0.0000192 -0.0003540 -0.0001470 0.0000245 -0.0000186 -0.0001050
-0.0006190 -0.0008416 0.0007516 0.0004208 -0.0002256 -0.0011014 -0.0005222 -0.0007679 0.0000643 -0.0004932 0.0009337 -0.0013517 -0.0007057 0.0006549 -0.0008199 -0.0026431 0.0002251 -0.0002341 0.0002994 -0.0001937 -0.0000320 -0.0012210 -0.0009575 -0.0021662 -0.0002222 -0.0006274 0.0000919 -0.0000249 -0.0000152 -0.0009633 -0.0002165 -0.0013954 -0.0000813 0.0005072 -0.0002181 -0.0013025 -0.0001794 -0.0013973 0.0000189 -0.0002536 -0.0001630 0.0001455 -0.0000229 -0.0000050
-0.0006107 -0.0008695 0.0006991 0.0004787 -0.0002421 -0.0010288 -0.0004969 -0.0007648 0.0000532 -0.0004534 0.0009585 -0.0013862 -0.0006930 0.0006415 -0.0007951 -0.0026199 0.0002207 -0.0001823 0.0003019 -0.0001457 -0.0000461 -0.0010847 -0.0009554 -0.0021426 -0.0002242 -0.0005643 0.0000877 -0.0000184 -0.0000096 -0.0008573 -0.0002228 -0.0013009 -0.0000764 0.0005742 -0.0002252 -0.0011906 -0.0001842 -0.0012649 0.0000186 -0.0001393 -0.0001873 0.0002857 -0.0000357 0.0001158
-0.0006290 -0.0008714 0.0006430 0.0004827 -0.0002653 -0.0009575 -0.0004316 -0.0007640 0.0000397 -0.0004069 0.0009530 -0.0013779 -0.0006762 0.0006276 -0.0008342 -0.0025055 0.0002170 -0.0001294 0.0002936 -0.0000865 -0.0000577 -0.0009405 -0.0009221 -0.0020526 -0.0002239 -0.0004959 0.0000891 0.0000036 -0.0000199 -0.0007278 -0.0002370 -0.0012271 -0.0000827 0.0006381 -0.0002333 -0.0010784 -0.0001872 -0.0011279 0.0000101 -0.0000156 -0.0002055 0.0004106 -0.0000528 0.0002450
-0.0006254 -0.0008178 0.0005820 0.0006002 -0.0002305 -0.0009044 -0.0004363 -0.0006154 0.0000479 -0.0003416 0.0009259 -0.0013381 -0.0006447 0.0005988 -0.0008019 -0.0024384 0.0002148 -0.0000974 0.0002924 -0.0000473 -0.0000574 -0.0009111 -0.0008818 -0.0019514 -0.0002166 -0.0004679 0.0000967 0.0000480 -0.0000326 -0.0007063 -0.0002430 -0.0012380 -0.0000924 0.0006093 -0.0002122 -0.0011158 -0.0001901 -0.0012092 -0.0000077 -0.0000707 -0.0001878 0.0002579 -0.0000547 0.0001388
-0.0005890 -0.0007776 0.0006688 0.0005530 -0.0001857 -0.0009368 -0.0004003 -0.0005823 0.0000586 -0.0003414 0.0009052 -0.0013080 -0.0006383 0.0005908 -0.0007799 -0.0024222 0.0002221 -0.0001292 0.0003012 -0.0000866 -0.0000474 -0.0010663 -0.0008447 -0.0019268 -0.0002078 -0.0004930 0.0001003 0.0000713 -0.0000324 -0.0008236 -0.0002301 -0.0013267 -0.0000937 0.0005115 -0.0001896 -0.0012533 -0.0001804 -0.0014058 -0.0000114 -0.0002425 -0.0001792 0.0000322 -0.0000437 -0.0000670
-0.0005785 -0.0007677 0.0006774 0.0004429 -0.0002031 -0.0009705 -0.0003460 -0.0006292 0.0000643 -0.0003940 0.0008978 -0.0012976 -0.0006499 0.0006013 -0.0007848 -0.0024243 0.0002333 -0.0001686 0.0003006 -0.0001268 -0.0000434 -0.0011884 -0.0008123 -0.0019168 -0.0001999 -0.0005133 0.0001026 0.0000765 -0.0000325 -0.0008765 -0.0002312 -0.0013510 -0.0000933 0.0004958 -0.0001903 -0.0012834 -0.0001720 -0.0014321 -0.0000102 -0.0002598 -0.0001820 0.0000367 -0.0000428 -0.0000680
-0.0005458 -0.0007764 0.0007563 0.0004204 -0.0002049 -0.0009455 -0.0002580 -0.0005968 0.0000696 -0.0003910 0.0008887 -0.0012834 -0.0006273 0.0005833 -0.0008134 -0.0023771 0.0002336 -0.0001603 0.0002983 -0.0001170 -0.0000403 -0.0011837 -0.0008049 -0.0018401 -0.0001913 -0.0005002 0.0001069 0.0000936 -0.0000273 -0.0008445 -0.0002400 -0.0013097 -0.0000961 0.0005330 -0.0001882 -0.0012449 -0.0001701 -0.0013755 -0.0000104 -0.0001872 -0.0001887 0.0001031 -0.0000451 -0.0000018
-0.0005265 -0.0007573 0.0006960 0.0004965 -0.0002208 -0.0009184 -0.0002818 -0.0005622 0.0000618 -0.0003462 0.0008639 -0.0012487 -0.0006058 0.0005649 -0.0007992 -0.0023600 0.0002256 -0.0001235 0.0003015 -0.0000831 -0.0000415 -0.0010955 -0.0008337 -0.0017828 -0.0001908 -0.0004637 0.0001046 0.0000948 -0.0000327 -0.0007599 -0.0002361 -0.0012384 -0.0000920 0.0005653 -0.0001943 -0.0011558 -0.0001672 -0.0012575 -0.0000145 -0.0000754 -0.0002128 0.0002266 -0.0000473 0.0000972
-0.0005479 -0.0007192 0.0004497 0.0006518 -0.0002362 -0.0008991 -0.0002545 -0.0006177 0.0000617 -0.0002987 0.0008466 -0.0012245 -0.0005947 0.0005525 -0.0007652 -0.0023418 0.0002217 -0.0000764 0.0003001 -0.0000288 -0.0000554 -0.0009465 -0.0008273 -0.0017534 -0.0001914 -0.0004024 0.0001011 0.0001033 -0.0000385 -0.0006429 -0.0002336 -0.0011588 -0.0000938 0.0006259 -0.0002030 -0.0010373 -0.0001631 -0.0011178 -0.0000197 0.0000345 -0.0002460 0.0003419 -0.0000570 0.0002312
-0.0005487 -0.0007089 0.0005225 0.0006222 -0.0002174 -0.0008466 -0.0001607 -0.0006254 0.0000588 -0.0002450 0.0008366 -0.0012098 -0.0005893 0.0005463 -0.0007615 -0.0022525 0.0002179 -0.0000346 0.0002923 -0.0000125 -0.0000742 -0.0009000 -0.0007160 -0.0016924 -0.0001725 -0.0003479 0.0001046 0.0000797 -0.0000470 -0.0005817 -0.0002356 -0.0011737 -0.0000848 0.0008125 -0.0001744 -0.0010071 -0.0001626 -0.0012092 -0.0000467 -0.0000200 -0.0003311 -0.0000779 -0.0000170 0.0002784
-0.0005471 -0.0007236 0.0005900 0.0005540 -0.0001702 -0.0007966 -0.0002392 -0.0004354 0.0001167 -0.0000736 0.0007096 -0.0010304 -0.0006289 0.0005824 -0.0007458 -0.0021977 0.0002614 0.0000399 0.0002572 -0.0000302 -0.0000476 -0.0009592 -0.0006729 -0.0017405 -0.0001093 -0.0002957 0.0001012 -0.0001159 -0.0000607 -0.0006316 -0.0001944 -0.0011891 -0.0000652 0.0010186 -0.0001215 -0.0010041 -0.0001661 -0.0014606 -0.0000526 -0.0001110 -0.0004048 -0.0006274 0.0000465 0.0002907
-0.0005121 -0.0006481 0.0005629 0.0006323 -0.0000967 -0.0008358 -0.0002915 -0.0003552 0.0002053 0.0000484 0.0006165 -0.0008998 -0.0006870 0.0006354 -0.0007457 -0.0021732 0.0003007 0.0000811 0.0002512 -0.0000311 -0.0000168 -0.0010029 -0.0007406 -0.0019193 -0.0000935 -0.0003013 0.0000827 -0.0003161 -0.0000670 -0.0007070 -0.0001592 -0.0011611 -0.0000628 0.0010700 -0.0001283 -0.0010392 -0.0001621 -0.0014636 -0.0000389 -0.0000877 -0.0004047 -0.0006631 0.0000590 0.0003639
-0.0004875 -0.0005940 0.0006154 0.0006422 -0.0001213 -0.0008372 -0.0003530 -0.0004055 0.0001726 -0.0000395 0.0006881 -0.0010022 -0.0007370 0.0006807 -0.0007472 -0.0021971 0.0002831 0.0000651 0.0002886 -0.0000233 -0.0000301 -0.0010298 -0.0007822 -0.0020251 -0.0001342 -0.0003522 0.0000634 -0.0003880 -0.0000663 -0.0006955 -0.0001624 -0.0011399 -0.0000511 0.0011350 -0.0001702 -0.0010927 -0.0001472 -0.0013195 -0.0000459 -0.0000479 -0.0003974 -0.0005631 0.0000513 0.0004571
-0.0005040 -0.0006624 0.0005898 0.0006450 -0.0001777 -0.0007816 -0.0004253 -0.0004284 0.0001132 -0.0001449 0.0007486 -0.0010879 -0.0007582 0.0006981 -0.0007551 -0.0021893 0.0002760 0.0000708 0.0002953 0.0000058 -0.0000532 -0.0010124 -0.0007901 -0.0019443 -0.0001476 -0.0003275 0.0000520 -0.0004100 -0.0000692 -0.0005968 -0.0001760 -0.0010712 -0.0000486 0.0011857 -0.0002009 -0.0010610 -0.0001355 -0.0011789 -0.0000460 0.0000484 -0.0004075 -0.0004269 0.0000415 0.0005631
-0.0005020 -0.0006913 0.0005725 0.0006481 -0.0001694 -0.0007660 -0.0003693 -0.0005010 0.0000921 -0.0001714 0.0007731 -0.0011210 -0.0007549 0.0006944 -0.0007490 -0.0021215 0.0002675 0.0001118 0.0002898 0.0000598 -0.0000692 -0.0009005 -0.0007859 -0.0018333 -0.0001577 -0.0002603 0.0000527 -0.0003855 -0.0000803 -0.0004682 -0.0001874 -0.0010075 -0.0000622 0.0011507 -0.0002210 -0.0009899 -0.0001352 -0.0010047 -0.0000464 0.0001821 -0.0003999 -0.0002546 0.0000274 0.0006477
-0.0005084 -0.0007087 0.0007508 0.0004387 -0.0001473 -0.0007645 -0.0002849 -0.0006515 0.0000765 -0.0001703 0.0008083 -0.0011695 -0.0007453 0.0006874 -0.0007408 -0.0020912 0.0002552 0.0001233 0.0002963 0.0000688 -0.0000640 -0.0008791 -0.0008059 -0.0017692 -0.0001554 -0.0002483 0.0000679 -0.0002855 -0.0000730 -0.0004883 -0.0001751 -0.0010305 -0.0000711 0.0010236 -0.0002066 -0.0010257 -0.0001315 -0.0010484 -0.0000421 0.0001204 -0.0003508 -0.0002606 0.0000085 0.0004053
-0.0004975 -0.0007192 0.0007024 0.0005177 -0.0001344 -0.0008111 -0.0003123 -0.0006141 0.0000752 -0.0002232 0.0008206 -0.0011862 -0.0006556 0.0006057 -0.0007114 -0.0021290 0.0002547 0.0000549 0.0003026 0.0000064 -0.0000565 -0.0010443 -0.0007385 -0.0016577 -0.0001314 -0.0003105 0.0000927 -0.0001111 -0.0000513 -0.0006523 -0.0001729 -0.0011393 -0.0000792 0.0007831 -0.0001819 -0.0011732 -0.0001150 -0.0012277 -0.0000283 -0.0000629 -0.0002825 -0.0003788 -0.0000129 0.0000200
-0.0005019 -0.0006859 0.0006155 0.0005830 -0.0001380 -0.0008702 -0.0003211 -0.0005139 0.0000898 -0.0003143 0.0007934 -0.0011460 -0.0005602 0.0005171 -0.0007206 -0.0021429 0.0002530 -0.0000185 0.0002996 -0.0000429 -0.0000480 -0.0011561 -0.0006445 -0.0014912 -0.0001149 -0.0003523 0.0001173 0.0001050 -0.0000360 -0.0007323 -0.0001797 -0.0011929 -0.0000887 0.0005989 -0.0001693 -0.0012036 -0.0000963 -0.0012443 -0.0000078 -0.0001009 -0.0002451 -0.0002407 -0.0000487 -0.0001525
-0.0004977 -0.0006775 0.0006104 0.0005624 -0.0001424 -0.0008863 -0.0002772 -0.0004210 0.0001017 -0.0003190 0.0007345 -0.0010599 -0.0004221 0.0003923 -0.0007365 -0.0021490 0.0002485 -0.0000502 0.0003039 -0.0000579 -0.0000342 -0.0011276 -0.0005795 -0.0012638 -0.0000990 -0.0003564 0.0001481 0.0003952 -0.0000239 -0.0006916 -0.0001683 -0.0011825 -0.0000943 0.0004498 -0.0001651 -0.0011351 -0.0000873 -0.0011561 0.0000138 -0.0000463 -0.0002120 0.0000413 -0.0001077 -0.0002574
-0.0004938 -0.0006707 0.0006153 0.0005673 -0.0001395 -0.0008838 -0.0002662 -0.0003887 0.0001095 -0.0003015 0.0006741 -0.0009730 -0.0002980 0.0002791 -0.0007429 -0.0021452 0.0002405 -0.0000448 0.0003008 -0.0000484 -0.0000349 -0.0010492 -0.0005438 -0.0011326 -0.0000876 -0.0003402 0.0001677 0.0005353 -0.0000170 -0.0006470 -0.0001660 -0.0011494 -0.0000969 0.0004108 -0.0001676 -0.0010760 -0.0000859 -0.0010772 0.0000170 -0.0000015 -0.0002185 0.0001778 -0.0001473 -0.0002854
-0.0005003 -0.0006669 0.0006118 0.0005608 -0.0001614 -0.0008331 -0.0002981 -0.0002526 0.0001172 -0.0002639 0.0006086 -0.0008783 -0.0001450 0.0001373 -0.0007605 -0.0021125 0.0002324 -0.0000318 0.0002958 -0.0000308 -0.0000387 -0.0009325 -0.0004785 -0.0009366 -0.0000721 -0.0003034 0.0002017 0.0007352 -0.0000151 -0.0005759 -0.0001754 -0.0010997 -0.0001008 0.0003804 -0.0001703 -0.0009994 -0.0000852 -0.0009651 0.0000115 0.0000605 -0.0002394 0.0003189 -0.0001776 -0.0002653
-0.0004944 -0.0006561 0.0006363 0.0005401 -0.0001389 -0.0008362 -0.0002855 -0.0002049 0.0001151 -0.0002342 0.0005730 -0.0008278 -0.0001175 0.0001124 -0.0007362 -0.0020931 0.0002267 -0.0000304 0.0002923 -0.0000248 -0.0000329 -0.0009072 -0.0004621 -0.0009458 -0.0000728 -0.0003041 0.0002015 0.0007350 -0.0000139 -0.0005833 -0.0001755 -0.0011065 -0.0001014 0.0003291 -0.0001610 -0.0010094 -0.0000805 -0.0009895 0.0000128 0.0000284 -0.0002196 0.0002498 -0.0001617 -0.0002910
-0.0004904 -0.0006360 0.0006324 0.0005571 -0.0001367 -0.0008328 -0.0002802 -0.0002041 0.0001131 -0.0002500 0.0005672 -0.0008202 -0.0001697 0.0001608 -0.0007284 -0.0020950 0.0002244 -0.0000502 0.0002917 -0.0000418 -0.0000273 -0.0009418 -0.0004710 -0.0009964 -0.0000752 -0.0003320 0.0001893 0.0006634 -0.0000091 -0.0006346 -0.0001742 -0.0011355 -0.0001012 0.0002904 -0.0001548 -0.0010435 -0.0000764 -0.0010313 0.0000180 -0.0000203 -0.0002129 0.0001690 -0.0001434 -0.0003062
-0.0004750 -0.0006407 0.0005791 0.0005378 -0.0001566 -0.0008260 -0.0002630 -0.0002373 0.0001159 -0.0002638 0.0005662 -0.0008188 -0.0001737 0.0001639 -0.0007255 -0.0020651 0.0002225 -0.0000558 0.0002897 -0.0000482 -0.0000268 -0.0009403 -0.0004645 -0.0010022 -0.0000754 -0.0003338 0.0001863 0.0006443 -0.0000110 -0.0006300 -0.0001706 -0.0011292 -0.0000987 0.0002942 -0.0001537 -0.0010322 -0.0000764 -0.0010201 0.0000202 -0.0000153 -0.0002101 0.0001711 -0.0001372 -0.0002937
-0.0004603 -0.0006289 0.0005523 0.0005482 -0.0001507 -0.0008391 -0.0002629 -0.0001903 0.0001148 -0.0002708 0.0005299 -0.0007673 -0.0001477 0.0001406 -0.0007118 -0.0020878 0.0002195 -0.0000821 0.0002911 -0.0000690 -0.0000206 -0.0009434 -0.0004495 -0.0009916 -0.0000735 -0.0003632 0.0001888 0.0006560 0.0000031 -0.0006707 -0.0001661 -0.0011583 -0.0000986 0.0002289 -0.0001489 -0.0010403 -0.0000724 -0.0010196 0.0000337 -0.0000275 -0.0002018 0.0001720 -0.0001342 -0.0002963
-0.0004484 -0.0006095 0.0005792 0.0005000 -0.0001470 -0.0008580 -0.0002357 -0.0002796 0.0001112 -0.0003128 0.0005460 -0.0007919 -0.0002682 0.0002513 -0.0006920 -0.0020978 0.0002216 -0.0001099 0.0002917 -0.0000932 -0.0000150 -0.0010043 -0.0004888 -0.0011485 -0.0000865 -0.0004060 0.0001596 0.0004682 0.0000152 -0.0007506 -0.0001569 -0.0012021 -0.0000935 0.0002208 -0.0001425 -0.0010892 -0.0000681 -0.0010885 0.0000503 -0.0000788 -0.0001887 0.0000429 -0.0000954 -0.0002750
-0.0004465 -0.0005996 0.0005787 0.0004829 -0.0001445 -0.0008614 -0.0002259 -0.0002961 0.0001089 -0.0003199 0.0005479 -0.0007950 -0.0002996 0.0002801 -0.0006814 -0.0020851 0.0002203 -0.0001109 0.0002901 -0.0000936 -0.0000161 -0.0009889 -0.0004871 -0.0011688 -0.0000882 -0.0004067 0.0001534 0.0004258 0.0000170 -0.0007419 -0.0001565 -0.0011919 -0.0000910 0.0002323 -0.0001409 -0.0010749 -0.0000683 -0.0010671 0.0000559 -0.0000637 -0.0001881 0.0000489 -0.0000864 -0.0002282
-0.0004411 -0.0005892 0.0005570 0.0004983 -0.0001420 -0.0008526 -0.0002096 -0.0002937 0.0001087 -0.0003146 0.0005437 -0.0007892 -0.0003191 0.0002980 -0.0006612 -0.0020774 0.0002206 -0.0001075 0.0002876 -0.0000862 -0.0000157 -0.0009641 -0.0004879 -0.0011757 -0.0000908 -0.0003992 0.0001480 0.0003964 0.0000175 -0.0007256 -0.0001539 -0.0011815 -0.0000887 0.0002426 -0.0001363 -0.0010619 -0.0000682 -0.0010598 0.0000597 -0.0000606 -0.0001843 0.0000232 -0.0000763 -0.0002212
-0.0004367 -0.0005771 0.0005347 0.0005142 -0.0001376 -0.0008473 -0.0001941 -0.0002991 0.0001111 -0.0003121 0.0005473 -0.0007939 -0.0003235 0.0003024 -0.0006499 -0.0020627 0.0002215 -0.0001125 0.0002852 -0.0000871 -0.0000115 -0.0009738 -0.0004860 -0.0011670 -0.0000880 -0.0004031 0.0001462 0.0003868 0.0000180 -0.0007323 -0.0001506 -0.0011909 -0.0000865 0.0002248 -0.0001286 -0.0010783 -0.0000666 -0.0010805 0.0000597 -0.0000915 -0.0001791 -0.0000223 -0.0000733 -0.0002543
-0.0004333 -0.0005653 0.0005273 0.0004955 -0.0001341 -0.0008488 -0.0002083 -0.0002903 0.0001150 -0.0003290 0.0005500 -0.0007977 -0.0003372 0.0003148 -0.0006410 -0.0020579 0.0002240 -0.0001320 0.0002864 -0.0001041 -0.0000084 -0.0010038 -0.0004863 -0.0011765 -0.0000857 -0.0004203 0.0001418 0.0003564 0.0000272 -0.0007649 -0.0001434 -0.0012122 -0.0000828 0.0002050 -0.0001223 -0.0011013 -0.0000638 -0.0011025 0.0000661 -0.0001207 -0.0001768 -0.0000590 -0.0000653 -0.0002651
-0.0004281 -0.0005539 0.0005442 0.0004739 -0.0001277 -0.0008605 -0.0001948 -0.0002939 0.0001197 -0.0003427 0.0005487 -0.0007960 -0.0003410 0.0003181 -0.0006345 -0.0020484 0.0002258 -0.0001466 0.0002872 -0.0001190 -0.0000048 -0.0010257 -0.0004836 -0.0011801 -0.0000834 -0.0004341 0.0001386 0.0003325 0.0000350 -0.0007857 -0.0001349 -0.0012278 -0.0000790 0.0001908 -0.0001154 -0.0011174 -0.0000606 -0.0011165 0.0000749 -0.0001425 -0.0001765 -0.0000827 -0.0000584 -0.0002685
-0.0004226 -0.0005485 0.0005544 0.0004488 -0.0001300 -0.0008634 -0.0001760 -0.0003095 0.0001196 -0.0003490 0.0005485 -0.0007955 -0.0003495 0.0003257 -0.0006250 -0.0020469 0.0002282 -0.0001584 0.0002889 -0.0001310 -0.0000005 -0.0010357 -0.0004804 -0.0011821 -0.0000812 -0.0004424 0.0001359 0.0003132 0.0000420 -0.0007957 -0.0001265 -0.0012334 -0.0000759 0.0001846 -0.0001105 -0.0011231 -0.0000581 -0.0011179 0.0000810 -0.0001497 -0.0001760 -0.0000911 -0.0000533 -0.0002608
-0.0004193 -0.0005411 0.0005490 0.0004434 -0.0001305 -0.0008599 -0.0001801 -0.0003034 0.0001209 -0.0003537 0.0005454 -0.0007911 -0.0003523 0.0003285 -0.0006103 -0.0020458 0.0002299 -0.0001651 0.0002907 -0.0001384 0.0000034 -0.0010349 -0.0004773 -0.0011788 -0.0000793 -0.0004453 0.0001334 0.0002986 0.0000465 -0.0007948 -0.0001200 -0.0012303 -0.0000723 0.0001829 -0.0001056 -0.0011207 -0.0000558 -0.0011088 0.0000873 -0.0001491 -0.0001765 -0.0000889 -0.0000496 -0.0002451
-0.0004145 -0.0005335 0.0005540 0.0004323 -0.0001263 -0.0008579 -0.0001701 -0.0002998 0.0001217 -0.0003543 0.0005419 -0.0007862 -0.0003556 0.0003313 -0.0006057 -0.0020353 0.0002313 -0.0001677 0.0002920 -0.0001412 0.0000065 -0.0010250 -0.0004751 -0.0011721 -0.0000782 -0.0004429 0.0001313 0.0002868 0.0000499 -0.0007857 -0.0001141 -0.0012209 -0.0000697 0.0001858 -0.0001018 -0.0011107 -0.0000545 -0.0010894 0.0000921 -0.0001405 -0.0001780 -0.0000764 -0.0000479 -0.0002227
-0.0004103 -0.0005283 0.0005441 0.0004342 -0.0001274 -0.0008476 -0.0001665 -0.0003047 0.0001202 -0.0003492 0.0005394 -0.0007826 -0.0003586 0.0003340 -0.0006016 -0.0020184 0.0002322 -0.0001663 0.0002931 -0.0001404 0.0000087 -0.0010048 -0.0004740 -0.0011665 -0.0000773 -0.0004361 0.0001297 0.0002768 0.0000520 -0.0007689 -0.0001103 -0.0012055 -0.0000675 0.0001939 -0.0000983 -0.0010932 -0.0000526 -0.0010616 0.0000962 -0.0001252 -0.0001803 -0.0000567 -0.0000469 -0.0001956
-0.0004079 -0.0005242 0.0005420 0.0004336 -0.0001286 -0.0008371 -0.0001620 -0.0003077 0.0001199 -0.0003434 0.0005344 -0.0007756 -0.0003611 0.0003363 -0.0005958 -0.0020032 0.0002329 -0.0001661 0.0002944 -0.0001410 0.0000111 -0.0009945 -0.0004731 -0.0011607 -0.0000755 -0.0004329 0.0001289 0.0002681 0.0000544 -0.0007636 -0.0001042 -0.0011988 -0.0000651 0.0001877 -0.0000921 -0.0010914 -0.0000499 -0.0010574 0.0000992 -0.0001320 -0.0001802 -0.0000670 -0.0000442 -0.0001983
-0.0004057 -0.0005217 0.0005468 0.0004179 -0.0001287 -0.0008329 -0.0001502 -0.0003225 0.0001204 -0.0003461 0.0005317 -0.0007717 -0.0003643 0.0003393 -0.0005921 -0.0019920 0.0002338 -0.0001708 0.0002947 -0.0001458 0.0000146 -0.0009967 -0.0004709 -0.0011624 -0.0000734 -0.0004339 0.0001278 0.0002593 0.0000574 -0.0007667 -0.0000986 -0.0011979 -0.0000628 0.0001774 -0.0000855 -0.0010952 -0.0000462 -0.0010585 0.0001024 -0.0001446 -0.0001804 -0.0000811 -0.0000416 -0.0002056
-0.0004027 -0.0005197 0.0005435 0.0004090 -0.0001248 -0.0008341 -0.0001507 -0.0003230 0.0001209 -0.0003494 0.0005261 -0.0007640 -0.0003642 0.0003392 -0.0005826 -0.0019828 0.0002345 -0.0001753 0.0002955 -0.0001516 0.0000174 -0.0009989 -0.0004690 -0.0011548 -0.0000711 -0.0004349 0.0001268 0.0002516 0.0000608 -0.0007686 -0.0000926 -0.0011972 -0.0000600 0.0001680 -0.0000791 -0.0010974 -0.0000432 -0.0010577 0.0001063 -0.0001539 -0.0001812 -0.0000900 -0.0000392 -0.0002093
-0.0003982 -0.0005154 0.0005302 0.0004146 -0.0001210 -0.0008342 -0.0001511 -0.0003212 0.0001208 -0.0003501 0.0005236 -0.0007603 -0.0003625 0.0003376 -0.0005761 -0.0019723 0.0002360 -0.0001799 0.0002964 -0.0001563 0.0000209 -0.0010004 -0.0004660 -0.0011466 -0.0000688 -0.0004349 0.0001257 0.0002456 0.0000636 -0.0007667 -0.0000876 -0.0011934 -0.0000578 0.0001622 -0.0000742 -0.0010958 -0.0000400 -0.0010527 0.0001097 -0.0001572 -0.0001812 -0.0000924 -0.0000379 -0.0002070
-0.0003950 -0.0005100 0.0005337 0.0004073 -0.0001176 -0.0008344 -0.0001524 -0.0003185 0.0001207 -0.0003495 0.0005199 -0.0007549 -0.0003620 0.0003370 -0.0005706 -0.0019594 0.0002368 -0.0001818 0.0002971 -0.0001591 0.0000233 -0.0009954 -0.0004625 -0.0011380 -0.0000669 -0.0004325 0.0001245 0.0002403 0.0000656 -0.0007596 -0.0000832 -0.0011859 -0.0000556 0.0001602 -0.0000695 -0.0010904 -0.0000375 -0.0010428 0.0001125 -0.0001552 -0.0001830 -0.0000873 -0.0000373 -0.0001993
-0.0003901 -0.0005069 0.0005324 0.0004060 -0.0001178 -0.0008297 -0.0001474 -0.0003180 0.0001212 -0.0003483 0.0005159 -0.0007492 -0.0003603 0.0003354 -0.0005656 -0.0019453 0.0002376 -0.0001820 0.0002979 -0.0001602 0.0000255 -0.0009860 -0.0004591 -0.0011278 -0.0000654 -0.0004279 0.0001231 0.0002359 0.0000677 -0.0007489 -0.0000803 -0.0011752 -0.0000534 0.0001608 -0.0000658 -0.0010804 -0.0000359 -0.0010278 0.0001142 -0.0001483 -0.0001846 -0.0000782 -0.0000367 -0.0001883
-0.0003864 -0.0005030 0.0005342 0.0004007 -0.0001162 -0.0008219 -0.0001419 -0.0003173 0.0001207 -0.0003443 0.0005116 -0.0007431 -0.0003597 0.0003348 -0.0005630 -0.0019274 0.0002377 -0.0001795 0.0002982 -0.0001577 0.0000271 -0.0009716 -0.0004584 -0.0011147 -0.0000643 -0.0004205 0.0001216 0.0002325 0.0000683 -0.0007333 -0.0000782 -0.0011613 -0.0000516 0.0001648 -0.0000622 -0.0010665 -0.0000344 -0.0010081 0.0001152 -0.0001372 -0.0001873 -0.0000662 -0.0000368 -0.0001753
-0.0003824 -0.0004974 0.0005325 0.0003958 -0.0001089 -0.0008192 -0.0001468 -0.0003084 0.0001208 -0.0003438 0.0005087 -0.0007389 -0.0003557 0.0003309 -0.0005587 -0.0019122 0.0002376 -0.0001802 0.0002975 -0.0001580 0.0000287 -0.0009680 -0.0004514 -0.0011027 -0.0000630 -0.0004163 0.0001200 0.0002316 0.0000686 -0.0007245 -0.0000781 -0.0011525 -0.0000504 0.0001636 -0.0000594 -0.0010579 -0.0000332 -0.0009983 0.0001142 -0.0001319 -0.0001881 -0.0000611 -0.0000376 -0.0001705
-0.0003787 -0.0004902 0.0005201 0.0004034 -0.0001065 -0.0008131 -0.0001534 -0.0002915 0.0001201 -0.0003395 0.0005043 -0.0007325 -0.0003515 0.0003270 -0.0005502 -0.0018960 0.0002369 -0.0001774 0.0002975 -0.0001560 0.0000293 -0.0009589 -0.0004471 -0.0010839 -0.0000617 -0.0004098 0.0001185 0.0002310 0.0000676 -0.0007104 -0.0000778 -0.0011404 -0.0000496 0.0001662 -0.0000582 -0.0010437 -0.0000323 -0.0009839 0.0001126 -0.0001206 -0.0001893 -0.0000495 -0.0000387 -0.0001603
-0.0003743 -0.0004837 0.0005244 0.0003958 -0.0001071 -0.0008023 -0.0001591 -0.0002780 0.0001196 -0.0003334 0.0005023 -0.0007294 -0.0003485 0.0003241 -0.0005495 -0.0018737 0.0002361 -0.0001737 0.0002975 -0.0001522 0.0000303 -0.0009477 -0.0004414 -0.0010695 -0.0000607 -0.0004025 0.0001170 0.0002313 0.0000657 -0.0006948 -0.0000783 -0.0011274 -0.0000494 0.0001708 -0.0000571 -0.0010292 -0.0000315 -0.0009701 0.0001100 -0.0001091 -0.0001905 -0.0000394 -0.0000402 -0.0001505
-0.0003724 -0.0004760 0.0005396 0.0003785 -0.0001063 -0.0007928 -0.0001490 -0.0002737 0.0001189 -0.0003276 0.0004978 -0.0007229 -0.0003463 0.0003219 -0.0005422 -0.0018565 0.0002342 -0.0001677 0.0002969 -0.0001475 0.0000295 -0.0009336 -0.0004370 -0.0010564 -0.0000604 -0.0003935 0.0001154 0.0002311 0.0000631 -0.0006781 -0.0000789 -0.0011136 -0.0000490 0.0001756 -0.0000558 -0.0010137 -0.0000315 -0.0009544 0.0001071 -0.0000977 -0.0001921 -0.0000289 -0.0000411 -0.0001410
-0.0003677 -0.0004711 0.0005317 0.0003841 -0.0001050 -0.0007821 -0.0001523 -0.0002649 0.0001174 -0.0003207 0.0004937 -0.0007170 -0.0003437 0.0003195 -0.0005365 -0.0018373 0.0002326 -0.0001615 0.0002956 -0.0001410 0.0000294 -0.0009205 -0.0004326 -0.0010436 -0.0000600 -0.0003847 0.0001140 0.0002309 0.0000609 -0.0006620 -0.0000801 -0.0010998 -0.0000488 0.0001801 -0.0000553 -0.0009977 -0.0000310 -0.0009387 0.0001043 -0.0000866 -0.0001929 -0.0000192 -0.0000423 -0.0001320
-0.0003645 -0.0004646 0.0005226 0.0003844 -0.0001016 -0.0007718 -0.0001515 -0.0002600 0.0001158 -0.0003129 0.0004912 -0.0007131 -0.0003419 0.0003178 -0.0005310 -0.0018182 0.0002306 -0.0001547 0.0002943 -0.0001339 0.0000293 -0.0009069 -0.0004283 -0.0010317 -0.0000597 -0.0003753 0.0001132 0.0002310 0.0000574 -0.0006455 -0.0000814 -0.0010859 -0.0000491 0.0001855 -0.0000549 -0.0009816 -0.0000303 -0.0009235 0.0001018 -0.0000756 -0.0001948 -0.0000090 -0.0000437 -0.0001226
-0.0003617 -0.0004575 0.0005120 0.0003921 -0.0001007 -0.0007623 -0.0001627 -0.0002456 0.0001151 -0.0003053 0.0004889 -0.0007096 -0.0003396 0.0003156 -0.0005203 -0.0018054 0.0002286 -0.0001502 0.0002931 -0.0001302 0.0000297 -0.0009026 -0.0004216 -0.0010238 -0.0000589 -0.0003704 0.0001123 0.0002303 0.0000551 -0.0006392 -0.0000810 -0.0010805 -0.0000491 0.0001803 -0.0000530 -0.0009770 -0.0000291 -0.0009268 0.0000993 -0.0000810 -0.0001944 -0.0000190 -0.0000440 -0.0001309
-0.0003583 -0.0004514 0.0005076 0.0003948 -0.0000987 -0.0007592 -0.0001499 -0.0002487 0.0001169 -0.0003021 0.0004872 -0.0007073 -0.0003409 0.0003167 -0.0005160 -0.0017918 0.0002323 -0.0001501 0.0002984 -0.0001301 0.0000339 -0.0008990 -0.0004187 -0.0010123 -0.0000558 -0.0003636 0.0001113 0.0002268 0.0000566 -0.0006252 -0.0000759 -0.0010782 -0.0000460 0.0001785 -0.0000448 -0.0009737 -0.0000247 -0.0009207 0.0001021 -0.0000788 -0.0002003 -0.0000174 -0.0000441 -0.0001270
-0.0003548 -0.0004479 0.0005165 0.0003836 -0.0000948 -0.0007580 -0.0001619 -0.0002358 0.0001172 -0.0002989 0.0004832 -0.0007015 -0.0003362 0.0003123 -0.0005089 -0.0017820 0.0002346 -0.0001486 0.0003037 -0.0001307 0.0000378 -0.0008933 -0.0004152 -0.0009971 -0.0000529 -0.0003553 0.0001108 0.0002265 0.0000574 -0.0006077 -0.0000718 -0.0010690 -0.0000436 0.0001803 -0.0000380 -0.0009625 -0.0000202 -0.0009058 0.0001040 -0.0000672 -0.0002081 -0.0000009 -0.0000458 -0.0001141
-0.0003508 -0.0004391 0.0005108 0.0003864 -0.0000936 -0.0007599 -0.0001553 -0.0002327 0.0001178 -0.0003025 0.0004839 -0.0007029 -0.0003570 0.0003311 -0.0004968 -0.0017810 0.0002394 -0.0001556 0.0003103 -0.0001371 0.0000442 -0.0009045 -0.0004171 -0.0010092 -0.0000521 -0.0003576 0.0001064 0.0001957 0.0000606 -0.0006103 -0.0000667 -0.0010777 -0.0000397 0.0001738 -0.0000281 -0.0009704 -0.0000147 -0.0009115 0.0001095 -0.0000713 -0.0002134 -0.0000211 -0.0000372 -0.0000988
-0.0003457 -0.0004303 0.0005060 0.0003830 -0.0000971 -0.0007568 -0.0001537 -0.0002390 0.0001194 -0.0003103 0.0004880 -0.0007089 -0.0003776 0.0003497 -0.0004898 -0.0017789 0.0002438 -0.0001604 0.0003172 -0.0001432 0.0000493 -0.0009129 -0.0004199 -0.0010164 -0.0000506 -0.0003579 0.0001019 0.0001681 0.0000628 -0.0006042 -0.0000605 -0.0010796 -0.0000360 0.0001788 -0.0000204 -0.0009689 -0.0000103 -0.0009027 0.0001148 -0.0000626 -0.0002238 -0.0000139 -0.0000352 -0.0000762
-0.0003441 -0.0004221 0.0005087 0.0003858 -0.0000909 -0.0007556 -0.0001544 -0.0002265 0.0001194 -0.0003023 0.0004870 -0.0007076 -0.0003783 0.0003504 -0.0004805 -0.0017717 0.0002477 -0.0001563 0.0003227 -0.0001389 0.0000530 -0.0008988 -0.0004186 -0.0010013 -0.0000484 -0.0003462 0.0001008 0.0001642 0.0000640 -0.0005795 -0.0000563 -0.0010689 -0.0000327 0.0001880 -0.0000135 -0.0009538 -0.0000061 -0.0008806 0.0001180 -0.0000423 -0.0002332 0.0000083 -0.0000369 -0.0000508
-0.0003401 -0.0004153 0.0005095 0.0003887 -0.0000910 -0.0007461 -0.0001465 -0.0002141 0.0001212 -0.0002936 0.0004848 -0.0007042 -0.0003743 0.0003467 -0.0004728 -0.0017606 0.0002510 -0.0001513 0.0003280 -0.0001345 0.0000572 -0.0008885 -0.0004155 -0.0009839 -0.0000457 -0.0003342 0.0001002 0.0001654 0.0000630 -0.0005569 -0.0000526 -0.0010600 -0.0000302 0.0001921 -0.0000054 -0.0009430 -0.0000019 -0.0008697 0.0001181 -0.0000320 -0.0002412 0.0000112 -0.0000386 -0.0000471
-0.0003373 -0.0004096 0.0005142 0.0003890 -0.0000872 -0.0007442 -0.0001495 -0.0002082 0.0001223 -0.0002903 0.0004849 -0.0007043 -0.0003741 0.0003464 -0.0004693 -0.0017471 0.0002539 -0.0001516 0.0003337 -0.0001361 0.0000621 -0.0008953 -0.0004128 -0.0009697 -0.0000417 -0.0003293 0.0000998 0.0001646 0.0000629 -0.0005485 -0.0000486 -0.0010595 -0.0000276 0.0001864 0.0000017 -0.0009427 0.0000029 -0.0008661 0.0001179 -0.0000300 -0.0002502 0.0000150 -0.0000415 -0.0000434
-0.0003343 -0.0004047 0.0005279 0.0003859 -0.0000828 -0.0007415 -0.0001394 -0.0002033 0.0001214 -0.0002800 0.0004807 -0.0006982 -0.0003722 0.0003446 -0.0004663 -0.0017324 0.0002553 -0.0001437 0.0003376 -0.0001298 0.0000660 -0.0008856 -0.0004068 -0.0009538 -0.0000395 -0.0003159 0.0000996 0.0001674 0.0000590 -0.0005232 -0.0000472 -0.0010465 -0.0000262 0.0001918 0.0000070 -0.0009286 0.0000073 -0.0008503 0.0001161 -0.0000144 -0.0002596 0.0000295 -0.0000448 -0.0000307
-0.0003299 -0.0004027 0.0005159 0.0003912 -0.0000832 -0.0007299 -0.0001360 -0.0001992 0.0001198 -0.0002693 0.0004772 -0.0006933 -0.0003717 0.0003441 -0.0004594 -0.0017209 0.0002567 -0.0001355 0.0003418 -0.0001233 0.0000691 -0.0008749 -0.0004036 -0.0009379 -0.0000378 -0.0003012 0.0000995 0.0001700 0.0000548 -0.0004988 -0.0000463 -0.0010329 -0.0000249 0.0001971 0.0000110 -0.0009127 0.0000110 -0.0008343 0.0001128 0.0000025 -0.0002682 0.0000427 -0.0000486 -0.0000183
-0.0003270 -0.0003970 0.0005145 0.0004006 -0.0000820 -0.0007194 -0.0001497 -0.0001760 0.0001204 -0.0002608 0.0004749 -0.0006900 -0.0003673 0.0003400 -0.0004524 -0.0017053 0.0002570 -0.0001257 0.0003448 -0.0001154 0.0000718 -0.0008650 -0.0004012 -0.0009200 -0.0000362 -0.0002867 0.0000991 0.0001739 0.0000494 -0.0004733 -0.0000471 -0.0010176 -0.0000237 0.0002020 0.0000152 -0.0008970 0.0000150 -0.0008181 0.0001094 0.0000185 -0.0002768 0.0000557 -0.0000525 -0.0000063
-0.0003232 -0.0003932 0.0005182 0.0004000 -0.0000749 -0.0007163 -0.0001454 -0.0001690 0.0001207 -0.0002506 0.0004723 -0.0006862 -0.0003666 0.0003392 -0.0004477 -0.0016870 0.0002571 -0.0001158 0.0003472 -0.0001071 0.0000737 -0.0008539 -0.0003981 -0.0009058 -0.0000352 -0.0002717 0.0000993 0.0001771 0.0000436 -0.0004479 -0.0000486 -0.0010023 -0.0000233 0.0002077 0.0000184 -0.0008805 0.0000189 -0.0008032 0.0001046 0.0000357 -0.0002855 0.0000685 -0.0000568 0.0000053
-0.0003197 -0.0003898 0.0005050 0.0004131 -0.0000714 -0.0007114 -0.0001428 -0.0001648 0.0001201 -0.0002401 0.0004687 -0.0006810 -0.0003656 0.0003383 -0.0004440 -0.0016662 0.0002571 -0.0001056 0.0003493 -0.0000982 0.0000753 -0.0008433 -0.0003949 -0.0008912 -0.0000342 -0.0002571 0.0000990 0.0001815 0.0000367 -0.0004231 -0.0000506 -0.0009880 -0.0000228 0.0002138 0.0000209 -0.0008642 0.0000229 -0.0007899 0.0000992 0.0000526 -0.0002946 0.0000804 -0.0000609 0.0000157
-0.0003164 -0.0003836 0.0005228 0.0003991 -0.0000686 -0.0007051 -0.0001371 -0.0001494 0.0001208 -0.0002308 0.0004639 -0.0006741 -0.0003642 0.0003369 -0.0004367 -0.0016501 0.0002568 -0.0000954 0.0003509 -0.0000889 0.0000759 -0.0008348 -0.0003880 -0.0008750 -0.0000334 -0.0002430 0.0000990 0.0001870 0.0000299 -0.0004021 -0.0000521 -0.0009778 -0.0000223 0.0002145 0.0000247 -0.0008545 0.0000263 -0.0007901 0.0000932 0.0000591 -0.0003023 0.0000723 -0.0000641 0.0000091
-0.0003127 -0.0003793 0.0005199 0.0004014 -0.0000738 -0.0006952 -0.0001326 -0.0001386 0.0001194 -0.0002235 0.0004601 -0.0006686 -0.0003622 0.0003350 -0.0004345 -0.0016316 0.0002532 -0.0000855 0.0003491 -0.0000802 0.0000753 -0.0008297 -0.0003863 -0.0008615 -0.0000340 -0.0002320 0.0000989 0.0001905 0.0000212 -0.0003864 -0.0000550 -0.0009673 -0.0000235 0.0002192 0.0000226 -0.0008407 0.0000282 -0.0007829 0.0000870 0.0000688 -0.0003074 0.0000752 -0.0000676 0.0000145
-0.0003074 -0.0003745 0.0005301 0.0003919 -0.0000719 -0.0006886 -0.0001271 -0.0001301 0.0001188 -0.0002142 0.0004558 -0.0006624 -0.0003585 0.0003316 -0.0004302 -0.0016154 0.0002508 -0.0000770 0.0003476 -0.0000721 0.0000746 -0.0008235 -0.0003825 -0.0008480 -0.0000344 -0.0002218 0.0000990 0.0001943 0.0000138 -0.0003717 -0.0000585 -0.0009565 -0.0000240 0.0002233 0.0000206 -0.0008277 0.0000294 -0.0007763 0.0000813 0.0000779 -0.0003124 0.0000767 -0.0000708 0.0000189
-0.0003059 -0.0003667 0.0005136 0.0004008 -0.0000700 -0.0006809 -0.0001159 -0.0001283 0.0001178 -0.0002071 0.0004517 -0.0006565 -0.0003567 0.0003299 -0.0004285 -0.0016029 0.0002477 -0.0000682 0.0003448 -0.0000638 0.0000737 -0.0008183 -0.0003793 -0.0008400 -0.0000350 -0.0002124 0.0000992 0.0001964 0.0000061 -0.0003581 -0.0000630 -0.0009449 -0.0000250 0.0002266 0.0000178 -0.0008144 0.0000310 -0.0007692 0.0000751 0.0000875 -0.0003160 0.0000773 -0.0000736 0.0000234
-0.0003015 -0.0003649 0.0004944 0.0004139 -0.0000706 -0.0006717 -0.0001247 -0.0001193 0.0001162 -0.0002002 0.0004490 -0.0006526 -0.0003548 0.0003282 -0.0004297 -0.0015855 0.0002440 -0.0000593 0.0003425 -0.0000560 0.0000732 -0.0008123 -0.0003775 -0.0008336 -0.0000354 -0.0002048 0.0000994 0.0001975 -0.0000010 -0.0003459 -0.0000666 -0.0009346 -0.0000259 0.0002291 0.0000150 -0.0008020 0.0000330 -0.0007641 0.0000691 0.0000952 -0.0003210 0.0000771 -0.0000768 0.0000268
-0.0003002 -0.0003609 0.0004852 0.0004100 -0.0000731 -0.0006602 -0.0001148 -0.0001149 0.0001165 -0.0001951 0.0004459 -0.0006483 -0.0003515 0.0003251 -0.0004238 -0.0015772 0.0002409 -0.0000518 0.0003406 -0.0000493 0.0000724 -0.0008081 -0.0003775 -0.0008237 -0.0000362 -0.0001973 0.0000997 0.0001989 -0.0000091 -0.0003350 -0.0000701 -0.0009255 -0.0000270 0.0002307 0.0000125 -0.0007908 0.0000345 -0.0007610 0.0000632 0.0001017 -0.0003246 0.0000736 -0.0000798 0.0000289
-0.0002974 -0.0003573 0.0004850 0.0004096 -0.0000718 -0.0006553 -0.0001098 -0.0001104 0.0001154 -0.0001898 0.0004415 -0.0006421 -0.0003496 0.0003234 -0.0004200 -0.0015649 0.0002374 -0.0000449 0.0003379 -0.0000429 0.0000708 -0.0008044 -0.0003747 -0.0008162 -0.0000368 -0.0001910 0.0000998 0.0002000 -0.0000161 -0.0003267 -0.0000721 -0.0009186 -0.0000283 0.0002311 0.0000099 -0.0007809 0.0000365 -0.0007594 0.0000575 0.0001058 -0.0003283 0.0000691 -0.0000827 0.0000299
-0.0002930 -0.0003546 0.0004816 0.0004021 -0.0000699 -0.0006521 -0.0000974 -0.0001141 0.0001154 -0.0001857 0.0004361 -0.0006345 -0.0003468 0.0003207 -0.0004177 -0.0015516 0.0002341 -0.0000361 0.0003349 -0.0000343 0.0000678 -0.0007913 -0.0003712 -0.0008067 -0.0000382 -0.0001806 0.0001000 0.0002031 -0.0000249 -0.0003084 -0.0000767 -0.0009037 -0.0000297 0.0002431 0.0000045 -0.0007588 0.0000375 -0.0007396 0.0000517 0.0001269 -0.0003325 0.0000842 -0.0000861 0.0000486
-0.0002895 -0.0003482 0.0004914 0.0003968 -0.0000705 -0.0006426 -0.0001052 -0.0000934 0.0001154 -0.0001749 0.0004321 -0.0006287 -0.0003441 0.0003181 -0.0004122 -0.0015396 0.0002306 -0.0000255 0.0003322 -0.0000250 0.0000666 -0.0007800 -0.0003667 -0.0007941 -0.0000394 -0.0001709 0.0001003 0.0002080 -0.0000324 -0.0002932 -0.0000805 -0.0008909 -0.0000312 0.0002489 0.0000017 -0.0007444 0.0000390 -0.0007312 0.0000463 0.0001385 -0.0003349 0.0000858 -0.0000888 0.0000563
-0.0002856 -0.0003434 0.0004924 0.0003999 -0.0000689 -0.0006351 -0.0000801 -0.0000985 0.0001151 -0.0001671 0.0004285 -0.0006235 -0.0003412 0.0003155 -0.0004135 -0.0015231 0.0002272 -0.0000170 0.0003286 -0.0000167 0.0000644 -0.0007730 -0.0003624 -0.0007860 -0.0000402 -0.0001635 0.0001012 0.0002127 -0.0000408 -0.0002832 -0.0000843 -0.0008824 -0.0000327 0.0002518 -0.0000019 -0.0007336 0.0000401 -0.0007258 0.0000407 0.0001464 -0.0003370 0.0000839 -0.0000914 0.0000612
-0.0002811 -0.0003391 0.0005065 0.0003771 -0.0000669 -0.0006294 -0.0000795 -0.0000884 0.0001149 -0.0001594 0.0004270 -0.0006212 -0.0003379 0.0003125 -0.0004157 -0.0015052 0.0002233 -0.0000089 0.0003255 -0.0000092 0.0000621 -0.0007671 -0.0003581 -0.0007792 -0.0000405 -0.0001582 0.0001019 0.0002164 -0.0000478 -0.0002756 -0.0000877 -0.0008765 -0.0000342 0.0002542 -0.0000052 -0.0007251 0.0000413 -0.0007246 0.0000358 0.0001492 -0.0003382 0.0000765 -0.0000943 0.0000615
-0.0002772 -0.0003361 0.0005078 0.0003773 -0.0000626 -0.0006327 -0.0000782 -0.0000802 0.0001141 -0.0001541 0.0004244 -0.0006174 -0.0003366 0.0003113 -0.0004135 -0.0014940 0.0002209 -0.0000043 0.0003224 -0.0000032 0.0000603 -0.0007665 -0.0003570 -0.0007686 -0.0000416 -0.0001537 0.0001032 0.0002190 -0.0000537 -0.0002718 -0.0000910 -0.0008724 -0.0000352 0.0002537 -0.0000082 -0.0007189 0.0000435 -0.0007275 0.0000315 0.0001503 -0.0003378 0.0000659 -0.0000960 0.0000592
-0.0002732 -0.0003341 0.0005227 0.0003582 -0.0000614 -0.0006293 -0.0000715 -0.0000809 0.0001158 -0.0001518 0.0004232 -0.0006155 -0.0003330 0.0003081 -0.0004126 -0.0014849 0.0002180 0.0000002 0.0003199 0.0000008 0.0000586 -0.0007675 -0.0003523 -0.0007652 -0.0000429 -0.0001507 0.0001041 0.0002209 -0.0000596 -0.0002694 -0.0000933 -0.0008697 -0.0000365 0.0002521 -0.0000110 -0.0007144 0.0000454 -0.0007313 0.0000267 0.0001513 -0.0003369 0.0000545 -0.0000977 0.0000562
-0.0002698 -0.0003331 0.0005273 0.0003497 -0.0000558 -0.0006299 -0.0000806 -0.0000731 0.0001154 -0.0001498 0.0004221 -0.0006140 -0.0003319 0.0003071 -0.0004166 -0.0014736 0.0002149 0.0000040 0.0003174 0.0000042 0.0000572 -0.0007698 -0.0003530 -0.0007618 -0.0000443 -0.0001487 0.0001044 0.0002215 -0.0000653 -0.0002682 -0.0000953 -0.0008668 -0.0000375 0.0002501 -0.0000152 -0.0007090 0.0000482 -0.0007295 0.0000234 0.0001551 -0.0003372 0.0000561 -0.0001001 0.0000639
-0.0002667 -0.0003331 0.0005401 0.0003280 -0.0000589 -0.0006245 -0.0000780 -0.0000638 0.0001135 -0.0001437 0.0004204 -0.0006115 -0.0003272 0.0003028 -0.0004174 -0.0014650 0.0002115 0.0000132 0.0003150 0.0000130 0.0000548 -0.0007548 -0.0003510 -0.0007559 -0.0000467 -0.0001408 0.0001049 0.0002241 -0.0000713 -0.0002543 -0.0000982 -0.0008563 -0.0000391 0.0002545 -0.0000183 -0.0006945 0.0000500 -0.0007224 0.0000201 0.0001654 -0.0003369 0.0000556 -0.0001019 0.0000710
-0.0002628 -0.0003330 0.0005249 0.0003268 -0.0000635 -0.0006163 -0.0000770 -0.0000597 0.0001133 -0.0001388 0.0004191 -0.0006096 -0.0003248 0.0003005 -0.0004134 -0.0014570 0.0002092 0.0000199 0.0003130 0.0000206 0.0000525 -0.0007431 -0.0003500 -0.0007535 -0.0000490 -0.0001337 0.0001052 0.0002252 -0.0000776 -0.0002437 -0.0001006 -0.0008489 -0.0000401 0.0002567 -0.0000206 -0.0006825 0.0000513 -0.0007165 0.0000172 0.0001729 -0.0003353 0.0000515 -0.0001032 0.0000752
-0.0002646 -0.0003318 0.0005272 0.0003200 -0.0000611 -0.0006166 -0.0000823 -0.0000509 0.0001116 -0.0001344 0.0004192 -0.0006095 -0.0003241 0.0002998 -0.0004127 -0.0014495 0.0002061 0.0000260 0.0003103 0.0000286 0.0000503 -0.0007330 -0.0003514 -0.0007513 -0.0000505 -0.0001290 0.0001050 0.0002258 -0.0000841 -0.0002327 -0.0001039 -0.0008413 -0.0000411 0.0002585 -0.0000230 -0.0006714 0.0000533 -0.0007113 0.0000135 0.0001797 -0.0003339 0.0000478 -0.0001044 0.0000789
-0.0002626 -0.0003338 0.0005171 0.0003131 -0.0000582 -0.0006162 -0.0000735 -0.0000577 0.0001097 -0.0001308 0.0004194 -0.0006098 -0.0003241 0.0002999 -0.0004169 -0.0014378 0.0002037 0.0000305 0.0003085 0.0000351 0.0000478 -0.0007256 -0.0003505 -0.0007514 -0.0000522 -0.0001248 0.0001053 0.0002248 -0.0000900 -0.0002261 -0.0001060 -0.0008378 -0.0000422 0.0002584 -0.0000250 -0.0006627 0.0000552 -0.0007085 0.0000104 0.0001838 -0.0003324 0.0000413 -0.0001051 0.0000798
-0.0002602 -0.0003392 0.0005123 0.0003116 -0.0000623 -0.0006124 -0.0000744 -0.0000584 0.0001071 -0.0001298 0.0004215 -0.0006129 -0.0003230 0.0002988 -0.0004240 -0.0014286 0.0002009 0.0000345 0.0003066 0.0000414 0.0000454 -0.0007185 -0.0003532 -0.0007544 -0.0000538 -0.0001221 0.0001049 0.0002217 -0.0000952 -0.0002202 -0.0001076 -0.0008346 -0.0000432 0.0002574 -0.0000270 -0.0006540 0.0000574 -0.0007054 0.0000071 0.0001872 -0.0003315 0.0000348 -0.0001055 0.0000800
-0.0002587 -0.0003450 0.0005155 0.0002998 -0.0000680 -0.0006049 -0.0000892 -0.0000517 0.0001056 -0.0001292 0.0004262 -0.0006194 -0.0003210 0.0002969 -0.0004223 -0.0014280 0.0001976 0.0000381 0.0003043 0.0000472 0.0000432 -0.0007127 -0.0003538 -0.0007576 -0.0000554 -0.0001198 0.0001051 0.0002181 -0.0000999 -0.0002149 -0.0001091 -0.0008329 -0.0000438 0.0002556 -0.0000287 -0.0006460 0.0000598 -0.0007041 0.0000046 0.0001887 -0.0003288 0.0000248 -0.0001057 0.0000789
-0.0002585 -0.0003509 0.0005019 0.0002972 -0.0000685 -0.0006044 -0.0000969 -0.0000539 0.0001032 -0.0001284 0.0004291 -0.0006236 -0.0003199 0.0002960 -0.0004225 -0.0014251 0.0001942 0.0000411 0.0003027 0.0000523 0.0000418 -0.0007077 -0.0003594 -0.0007589 -0.0000565 -0.0001185 0.0001047 0.0002144 -0.0001040 -0.0002091 -0.0001108 -0.0008279 -0.0000448 0.0002580 -0.0000320 -0.0006333 0.0000617 -0.0006941 0.0000024 0.0001968 -0.0003258 0.0000257 -0.0001057 0.0000868
-0.0002576 -0.0003547 0.0005008 0.0002819 -0.0000657 -0.0006066 -0.0000927 -0.0000659 0.0001018 -0.0001257 0.0004311 -0.0006265 -0.0003203 0.0002964 -0.0004196 -0.0014236 0.0001918 0.0000451 0.0003014 0.0000584 0.0000393 -0.0006967 -0.0003636 -0.0007661 -0.0000580 -0.0001159 0.0001041 0.0002106 -0.0001073 -0.0002021 -0.0001120 -0.0008227 -0.0000451 0.0002577 -0.0000331 -0.0006235 0.0000642 -0.0006883 -0.0000000 0.0002019 -0.0003237 0.0000212 -0.0001049 0.0000886
-0.0002592 -0.0003602 0.0004822 0.0002849 -0.0000650 -0.0006069 -0.0000991 -0.0000730 0.0001005 -0.0001259 0.0004345 -0.0006314 -0.0003202 0.0002961 -0.0004234 -0.0014197 0.0001889 0.0000485 0.0002993 0.0000642 0.0000376 -0.0006881 -0.0003663 -0.0007726 -0.0000593 -0.0001146 0.0001040 0.0002065 -0.0001112 -0.0001972 -0.0001121 -0.0008210 -0.0000457 0.0002553 -0.0000339 -0.0006167 0.0000666 -0.0006850 -0.0000032 0.0002043 -0.0003202 0.0000115 -0.0001049 0.0000887
-0.0002560 -0.0003679 0.0004858 0.0002784 -0.0000694 -0.0006025 -0.0001048 -0.0000763 0.0000997 -0.0001256 0.0004368 -0.0006347 -0.0003194 0.0002953 -0.0004202 -0.0014173 0.0001866 0.0000500 0.0002979 0.0000684 0.0000353 -0.0006797 -0.0003707 -0.0007754 -0.0000606 -0.0001134 0.0001039 0.0002027 -0.0001144 -0.0001936 -0.0001113 -0.0008205 -0.0000458 0.0002502 -0.0000344 -0.0006109 0.0000699 -0.0006838 -0.0000050 0.0002041 -0.0003157 0.0000015 -0.0001044 0.0000866
-0.0002555 -0.0003725 0.0004860 0.0002638 -0.0000706 -0.0006047 -0.0001014 -0.0000836 0.0000998 -0.0001268 0.0004366 -0.0006345 -0.0003193 0.0002952 -0.0004212 -0.0014161 0.0001852 0.0000493 0.0002958 0.0000724 0.0000342 -0.0006745 -0.0003737 -0.0007741 -0.0000613 -0.0001137 0.0001041 0.0002000 -0.0001169 -0.0001923 -0.0001110 -0.0008214 -0.0000460 0.0002440 -0.0000347 -0.0006070 0.0000726 -0.0006834 -0.0000068 0.0002032 -0.0003109 -0.0000100 -0.0001031 0.0000828
-0.0002541 -0.0003777 0.0004974 0.0002415 -0.0000694 -0.0006092 -0.0001006 -0.0000883 0.0000986 -0.0001269 0.0004382 -0.0006367 -0.0003184 0.0002944 -0.0004246 -0.0014098 0.0001829 0.0000487 0.0002944 0.0000740 0.0000333 -0.0006703 -0.0003730 -0.0007782 -0.0000619 -0.0001144 0.0001043 0.0001972 -0.0001187 -0.0001926 -0.0001098 -0.0008227 -0.0000462 0.0002376 -0.0000354 -0.0006041 0.0000752 -0.0006833 -0.0000090 0.0002007 -0.0003056 -0.0000228 -0.0001009 0.0000771
-0.0002554 -0.0003805 0.0005031 0.0002174 -0.0000742 -0.0006084 -0.0001150 -0.0000804 0.0000983 -0.0001288 0.0004402 -0.0006395 -0.0003173 0.0002933 -0.0004263 -0.0014086 0.0001814 0.0000470 0.0002928 0.0000751 0.0000325 -0.0006679 -0.0003760 -0.0007788 -0.0000624 -0.0001164 0.0001046 0.0001943 -0.0001215 -0.0001922 -0.0001092 -0.0008242 -0.0000458 0.0002298 -0.0000356 -0.0006027 0.0000778 -0.0006849 -0.0000103 0.0001971 -0.0003000 -0.0000365 -0.0000988 0.0000704
-0.0002562 -0.0003849 0.0004941 0.0002143 -0.0000771 -0.0006074 -0.0001234 -0.0000752 0.0000968 -0.0001309 0.0004443 -0.0006452 -0.0003153 0.0002916 -0.0004300 -0.0014042 0.0001801 0.0000441 0.0002914 0.0000754 0.0000325 -0.0006676 -0.0003785 -0.0007799 -0.0000625 -0.0001197 0.0001053 0.0001909 -0.0001217 -0.0001969 -0.0001068 -0.0008294 -0.0000453 0.0002168 -0.0000337 -0.0006081 0.0000808 -0.0006973 -0.0000117 0.0001842 -0.0002933 -0.0000647 -0.0000956 0.0000515
-0.0002558 -0.0003931 0.0004974 0.0001940 -0.0000785 -0.0006104 -0.0001213 -0.0000868 0.0000975 -0.0001389 0.0004466 -0.0006484 -0.0003130 0.0002895 -0.0004306 -0.0014064 0.0001786 0.0000392 0.0002905 0.0000736 0.0000324 -0.0006695 -0.0003807 -0.0007857 -0.0000625 -0.0001256 0.0001057 0.0001856 -0.0001231 -0.0002026 -0.0001052 -0.0008346 -0.0000442 0.0002070 -0.0000333 -0.0006108 0.0000838 -0.0007026 -0.0000131 0.0001765 -0.0002882 -0.0000808 -0.0000929 0.0000408
-0.0002571 -0.0003986 0.0004851 0.0001860 -0.0000795 -0.0006188 -0.0001361 -0.0000804 0.0000976 -0.0001454 0.0004484 -0.0006510 -0.0003134 0.0002899 -0.0004273 -0.0014114 0.0001772 0.0000333 0.0002893 0.0000715 0.0000316 -0.0006706 -0.0003812 -0.0007941 -0.0000626 -0.0001322 0.0001057 0.0001803 -0.0001226 -0.0002093 -0.0001034 -0.0008396 -0.0000440 0.0001983 -0.0000329 -0.0006135 0.0000866 -0.0007079 -0.0000134 0.0001675 -0.0002823 -0.0000959 -0.0000901 0.0000306
-0.0002579 -0.0004042 0.0004681 0.0001869 -0.0000797 -0.0006228 -0.0001317 -0.0000939 0.0000984 -0.0001545 0.0004485 -0.0006513 -0.0003122 0.0002888 -0.0004247 -0.0014184 0.0001765 0.0000265 0.0002885 0.0000682 0.0000314 -0.0006731 -0.0003833 -0.0007972 -0.0000623 -0.0001394 0.0001060 0.0001752 -0.0001228 -0.0002160 -0.0001010 -0.0008456 -0.0000433 0.0001872 -0.0000317 -0.0006173 0.0000888 -0.0007130 -0.0000137 0.0001591 -0.0002770 -0.0001097 -0.0000868 0.0000210
-0.0002582 -0.0004104 0.0004591 0.0001789 -0.0000796 -0.0006244 -0.0001228 -0.0001080 0.0000986 -0.0001626 0.0004507 -0.0006546 -0.0003101 0.0002869 -0.0004257 -0.0014209 0.0001757 0.0000200 0.0002878 0.0000646 0.0000312 -0.0006739 -0.0003849 -0.0008054 -0.0000616 -0.0001477 0.0001060 0.0001701 -0.0001210 -0.0002242 -0.0000980 -0.0008517 -0.0000428 0.0001768 -0.0000314 -0.0006206 0.0000906 -0.0007180 -0.0000126 0.0001485 -0.0002707 -0.0001244 -0.0000832 0.0000110
-0.0002583 -0.0004140 0.0004522 0.0001713 -0.0000790 -0.0006286 -0.0001263 -0.0001110 0.0000972 -0.0001699 0.0004503 -0.0006539 -0.0003099 0.0002867 -0.0004219 -0.0014237 0.0001750 0.0000126 0.0002876 0.0000600 0.0000322 -0.0006776 -0.0003889 -0.0008072 -0.0000608 -0.0001556 0.0001065 0.0001653 -0.0001196 -0.0002338 -0.0000948 -0.0008587 -0.0000418 0.0001651 -0.0000300 -0.0006262 0.0000926 -0.0007242 -0.0000108 0.0001363 -0.0002651 -0.0001386 -0.0000798 0.0000005
-0.0002581 -0.0004148 0.0004451 0.0001638 -0.0000805 -0.0006351 -0.0001238 -0.0001198 0.0000974 -0.0001765 0.0004498 -0.0006533 -0.0003079 0.0002849 -0.0004144 -0.0014308 0.0001749 0.0000039 0.0002868 0.0000552 0.0000326 -0.0006814 -0.0003872 -0.0008092 -0.0000591 -0.0001653 0.0001072 0.0001620 -0.0001171 -0.0002450 -0.0000908 -0.0008679 -0.0000409 0.0001539 -0.0000286 -0.0006331 0.0000947 -0.0007316 -0.0000090 0.0001232 -0.0002591 -0.0001534 -0.0000756 -0.0000113
-0.0002568 -0.0004140 0.0004291 0.0001663 -0.0000748 -0.0006426 -0.0001276 -0.0001198 0.0000994 -0.0001836 0.0004491 -0.0006523 -0.0003071 0.0002840 -0.0004143 -0.0014304 0.0001748 -0.0000039 0.0002857 0.0000505 0.0000333 -0.0006836 -0.0003876 -0.0008085 -0.0000575 -0.0001723 0.0001079 0.0001596 -0.0001155 -0.0002515 -0.0000880 -0.0008717 -0.0000393 0.0001487 -0.0000271 -0.0006352 0.0000968 -0.0007317 -0.0000070 0.0001168 -0.0002536 -0.0001597 -0.0000714 -0.0000157
-0.0002562 -0.0004159 0.0004256 0.0001666 -0.0000736 -0.0006452 -0.0001252 -0.0001231 0.0000993 -0.0001877 0.0004503 -0.0006539 -0.0003063 0.0002833 -0.0004121 -0.0014321 0.0001744 -0.0000107 0.0002853 0.0000460 0.0000339 -0.0006857 -0.0003905 -0.0008075 -0.0000554 -0.0001809 0.0001086 0.0001572 -0.0001128 -0.0002605 -0.0000839 -0.0008780 -0.0000381 0.0001397 -0.0000256 -0.0006416 0.0000993 -0.0007387 -0.0000056 0.0001044 -0.0002474 -0.0001720 -0.0000674 -0.0000254
-0.0002524 -0.0004156 0.0004276 0.0001552 -0.0000713 -0.0006512 -0.0001243 -0.0001266 0.0001014 -0.0001951 0.0004492 -0.0006522 -0.0003039 0.0002811 -0.0004088 -0.0014354 0.0001748 -0.0000202 0.0002851 0.0000391 0.0000352 -0.0006933 -0.0003877 -0.0008106 -0.0000538 -0.0001908 0.0001095 0.0001543 -0.0001096 -0.0002754 -0.0000787 -0.0008891 -0.0000368 0.0001273 -0.0000229 -0.0006527 0.0001016 -0.0007481 -0.0000027 0.0000872 -0.0002418 -0.0001853 -0.0000629 -0.0000374
-0.0002508 -0.0004141 0.0004422 0.0001382 -0.0000700 -0.0006575 -0.0001301 -0.0001232 0.0001045 -0.0002029 0.0004457 -0.0006475 -0.0003021 0.0002794 -0.0004054 -0.0014399 0.0001753 -0.0000306 0.0002850 0.0000313 0.0000362 -0.0007018 -0.0003872 -0.0008091 -0.0000512 -0.0002017 0.0001108 0.0001520 -0.0001054 -0.0002907 -0.0000732 -0.0009020 -0.0000353 0.0001139 -0.0000201 -0.0006653 0.0001041 -0.0007610 0.0000012 0.0000670 -0.0002349 -0.0002021 -0.0000578 -0.0000524
-0.0002488 -0.0004069 0.0004401 0.0001255 -0.0000667 -0.0006632 -0.0001234 -0.0001241 0.0001073 -0.0002091 0.0004416 -0.0006416 -0.0003004 0.0002778 -0.0004003 -0.0014408 0.0001767 -0.0000424 0.0002850 0.0000220 0.0000377 -0.0007148 -0.0003841 -0.0008024 -0.0000480 -0.0002141 0.0001118 0.0001519 -0.0001004 -0.0003093 -0.0000672 -0.0009171 -0.0000335 0.0000994 -0.0000168 -0.0006815 0.0001063 -0.0007768 0.0000062 0.0000451 -0.0002269 -0.0002205 -0.0000525 -0.0000688
-0.0002489 -0.0003984 0.0004519 0.0001007 -0.0000653 -0.0006699 -0.0001071 -0.0001345 0.0001102 -0.0002181 0.0004356 -0.0006330 -0.0002968 0.0002747 -0.0003966 -0.0014417 0.0001785 -0.0000549 0.0002865 0.0000101 0.0000401 -0.0007296 -0.0003815 -0.0007978 -0.0000447 -0.0002271 0.0001126 0.0001512 -0.0000942 -0.0003296 -0.0000607 -0.0009318 -0.0000317 0.0000833 -0.0000123 -0.0007000 0.0001085 -0.0007939 0.0000112 0.0000220 -0.0002204 -0.0002377 -0.0000464 -0.0000861
-0.0002447 -0.0003923 0.0004564 0.0000926 -0.0000635 -0.0006791 -0.0001030 -0.0001298 0.0001147 -0.0002277 0.0004325 -0.0006287 -0.0002927 0.0002709 -0.0003945 -0.0014438 0.0001813 -0.0000690 0.0002870 -0.0000022 0.0000426 -0.0007466 -0.0003761 -0.0007926 -0.0000413 -0.0002408 0.0001137 0.0001500 -0.0000889 -0.0003501 -0.0000544 -0.0009478 -0.0000296 0.0000676 -0.0000080 -0.0007196 0.0001116 -0.0008087 0.0000165 0.0000024 -0.0002145 -0.0002450 -0.0000419 -0.0000931
-0.0002408 -0.0003860 0.0004671 0.0000814 -0.0000605 -0.0006822 -0.0001068 -0.0001117 0.0001185 -0.0002344 0.0004297 -0.0006244 -0.0002868 0.0002657 -0.0003915 -0.0014417 0.0001828 -0.0000758 0.0002878 -0.0000083 0.0000437 -0.0007446 -0.0003701 -0.0007784 -0.0000380 -0.0002470 0.0001148 0.0001510 -0.0000847 -0.0003520 -0.0000494 -0.0009513 -0.0000278 0.0000671 -0.0000057 -0.0007203 0.0001126 -0.0008052 0.0000221 0.0000002 -0.0002082 -0.0002396 -0.0000374 -0.0000889
-0.0002362 -0.0003801 0.0004791 0.0000684 -0.0000626 -0.0006788 -0.0001095 -0.0000963 0.0001195 -0.0002347 0.0004267 -0.0006199 -0.0002835 0.0002625 -0.0003858 -0.0014404 0.0001849 -0.0000822 0.0002895 -0.0000136 0.0000455 -0.0007457 -0.0003652 -0.0007697 -0.0000353 -0.0002520 0.0001151 0.0001510 -0.0000792 -0.0003579 -0.0000449 -0.0009564 -0.0000258 0.0000615 -0.0000009 -0.0007277 0.0001148 -0.0008103 0.0000282 -0.0000102 -0.0002022 -0.0002395 -0.0000321 -0.0000928
-0.0002345 -0.0003745 0.0004862 0.0000497 -0.0000522 -0.0006907 -0.0000959 -0.0000925 0.0001207 -0.0002372 0.0004261 -0.0006189 -0.0002809 0.0002602 -0.0003821 -0.0014416 0.0001871 -0.0000898 0.0002911 -0.0000195 0.0000483 -0.0007517 -0.0003602 -0.0007625 -0.0000322 -0.0002587 0.0001154 0.0001506 -0.0000744 -0.0003659 -0.0000401 -0.0009635 -0.0000236 0.0000553 0.0000039 -0.0007366 0.0001161 -0.0008149 0.0000333 -0.0000213 -0.0001978 -0.0002405 -0.0000267 -0.0000973
-0.0002326 -0.0003684 0.0004875 0.0000494 -0.0000480 -0.0006937 -0.0000988 -0.0000799 0.0001228 -0.0002412 0.0004246 -0.0006166 -0.0002787 0.0002581 -0.0003747 -0.0014450 0.0001895 -0.0000973 0.0002942 -0.0000275 0.0000504 -0.0007591 -0.0003535 -0.0007570 -0.0000293 -0.0002648 0.0001155 0.0001492 -0.0000691 -0.0003753 -0.0000342 -0.0009737 -0.0000211 0.0000467 0.0000100 -0.0007486 0.0001186 -0.0008249 0.0000392 -0.0000368 -0.0001927 -0.0002462 -0.0000217 -0.0001051
-0.0002303 -0.0003607 0.0004775 0.0000541 -0.0000438 -0.0007012 -0.0000934 -0.0000736 0.0001253 -0.0002467 0.0004223 -0.0006132 -0.0002764 0.0002561 -0.0003693 -0.0014480 0.0001925 -0.0001062 0.0002971 -0.0000358 0.0000526 -0.0007691 -0.0003483 -0.0007479 -0.0000253 -0.0002727 0.0001160 0.0001482 -0.0000631 -0.0003851 -0.0000289 -0.0009840 -0.0000182 0.0000375 0.0000162 -0.0007614 0.0001210 -0.0008357 0.0000456 -0.0000524 -0.0001878 -0.0002523 -0.0000167 -0.0001125
-0.0002276 -0.0003556 0.0004760 0.0000526 -0.0000385 -0.0007096 -0.0000879 -0.0000680 0.0001270 -0.0002504 0.0004206 -0.0006107 -0.0002731 0.0002530 -0.0003605 -0.0014530 0.0001953 -0.0001147 0.0003013 -0.0000447 0.0000557 -0.0007797 -0.0003446 -0.0007406 -0.0000215 -0.0002804 0.0001159 0.0001466 -0.0000567 -0.0003958 -0.0000231 -0.0009938 -0.0000155 0.0000283 0.0000233 -0.0007750 0.0001241 -0.0008477 0.0000520 -0.0000678 -0.0001827 -0.0002582 -0.0000119 -0.0001200
-0.0002255 -0.0003504 0.0004835 0.0000404 -0.0000349 -0.0007170 -0.0000720 -0.0000699 0.0001286 -0.0002545 0.0004165 -0.0006050 -0.0002712 0.0002513 -0.0003523 -0.0014570 0.0001987 -0.0001238 0.0003051 -0.0000537 0.0000584 -0.0007901 -0.0003416 -0.0007334 -0.0000174 -0.0002884 0.0001159 0.0001437 -0.0000511 -0.0004040 -0.0000178 -0.0010012 -0.0000128 0.0000232 0.0000279 -0.0007832 0.0001269 -0.0008466 0.0000586 -0.0000730 -0.0001800 -0.0002425 -0.0000081 -0.0001103
-0.0002233 -0.0003442 0.0004840 0.0000370 -0.0000322 -0.0007187 -0.0000640 -0.0000637 0.0001298 -0.0002537 0.0004129 -0.0005997 -0.0002683 0.0002485 -0.0003496 -0.0014507 0.0002019 -0.0001277 0.0003083 -0.0000577 0.0000605 -0.0007893 -0.0003360 -0.0007294 -0.0000141 -0.0002907 0.0001159 0.0001430 -0.0000455 -0.0004046 -0.0000114 -0.0010039 -0.0000106 0.0000205 0.0000337 -0.0007867 0.0001291 -0.0008460 0.0000653 -0.0000779 -0.0001759 -0.0002348 -0.0000037 -0.0001053
-0.0002218 -0.0003397 0.0004930 0.0000258 -0.0000288 -0.0007188 -0.0000627 -0.0000588 0.0001311 -0.0002535 0.0004110 -0.0005970 -0.0002658 0.0002463 -0.0003445 -0.0014482 0.0002053 -0.0001307 0.0003118 -0.0000608 0.0000638 -0.0007881 -0.0003332 -0.0007177 -0.0000109 -0.0002912 0.0001158 0.0001425 -0.0000419 -0.0004024 -0.0000055 -0.0010063 -0.0000074 0.0000178 0.0000398 -0.0007900 0.0001312 -0.0008453 0.0000710 -0.0000818 -0.0001729 -0.0002259 0.0000003 -0.0000997
-0.0002193 -0.0003351 0.0004947 0.0000198 -0.0000241 -0.0007216 -0.0000611 -0.0000483 0.0001319 -0.0002504 0.0004088 -0.0005938 -0.0002646 0.0002452 -0.0003399 -0.0014428 0.0002082 -0.0001324 0.0003157 -0.0000630 0.0000671 -0.0007870 -0.0003299 -0.0007129 -0.0000085 -0.0002900 0.0001155 0.0001413 -0.0000376 -0.0003989 -0.0000004 -0.0010069 -0.0000048 0.0000169 0.0000459 -0.0007916 0.0001344 -0.0008442 0.0000765 -0.0000844 -0.0001684 -0.0002193 0.0000044 -0.0000948
-0.0002179 -0.0003309 0.0005065 0.0000075 -0.0000215 -0.0007210 -0.0000630 -0.0000385 0.0001346 -0.0002496 0.0004081 -0.0005925 -0.0002631 0.0002439 -0.0003378 -0.0014366 0.0002105 -0.0001328 0.0003196 -0.0000650 0.0000701 -0.0007856 -0.0003260 -0.0007052 -0.0000052 -0.0002891 0.0001148 0.0001409 -0.0000348 -0.0003945 0.0000043 -0.0010080 -0.0000015 0.0000156 0.0000526 -0.0007942 0.0001380 -0.0008428 0.0000805 -0.0000853 -0.0001654 -0.0002106 0.0000082 -0.0000895
-0.0002142 -0.0003269 0.0005060 0.0000128 -0.0000193 -0.0007215 -0.0000561 -0.0000342 0.0001363 -0.0002470 0.0004072 -0.0005912 -0.0002637 0.0002443 -0.0003350 -0.0014311 0.0002133 -0.0001332 0.0003231 -0.0000654 0.0000730 -0.0007830 -0.0003229 -0.0007026 -0.0000023 -0.0002879 0.0001142 0.0001389 -0.0000321 -0.0003884 0.0000090 -0.0010078 0.0000014 0.0000144 0.0000591 -0.0007946 0.0001419 -0.0008400 0.0000849 -0.0000864 -0.0001620 -0.0002030 0.0000122 -0.0000841
-0.0002120 -0.0003261 0.0005003 0.0000147 -0.0000163 -0.0007212 -0.0000530 -0.0000327 0.0001373 -0.0002465 0.0004057 -0.0005892 -0.0002629 0.0002435 -0.0003347 -0.0014212 0.0002163 -0.0001330 0.0003277 -0.0000664 0.0000770 -0.0007811 -0.0003216 -0.0006999 0.0000002 -0.0002854 0.0001139 0.0001359 -0.0000292 -0.0003818 0.0000129 -0.0010061 0.0000046 0.0000132 0.0000658 -0.0007944 0.0001450 -0.0008363 0.0000893 -0.0000862 -0.0001595 -0.0001942 0.0000157 -0.0000782
-0.0002100 -0.0003240 0.0005017 0.0000117 -0.0000208 -0.0007112 -0.0000458 -0.0000351 0.0001377 -0.0002440 0.0004042 -0.0005872 -0.0002626 0.0002434 -0.0003315 -0.0014133 0.0002194 -0.0001354 0.0003324 -0.0000689 0.0000808 -0.0007866 -0.0003197 -0.0007004 0.0000030 -0.0002879 0.0001138 0.0001316 -0.0000263 -0.0003843 0.0000174 -0.0010126 0.0000074 0.0000052 0.0000729 -0.0008033 0.0001493 -0.0008441 0.0000930 -0.0000958 -0.0001555 -0.0001949 0.0000191 -0.0000800
-0.0002083 -0.0003177 0.0005175 0.0000008 -0.0000132 -0.0007178 -0.0000443 -0.0000370 0.0001400 -0.0002447 0.0004013 -0.0005833 -0.0002614 0.0002422 -0.0003314 -0.0014075 0.0002216 -0.0001363 0.0003363 -0.0000705 0.0000848 -0.0007905 -0.0003171 -0.0006978 0.0000055 -0.0002881 0.0001135 0.0001281 -0.0000238 -0.0003814 0.0000211 -0.0010157 0.0000103 0.0000020 0.0000785 -0.0008049 0.0001532 -0.0008448 0.0000974 -0.0000982 -0.0001523 -0.0001903 0.0000224 -0.0000769
-0.0002070 -0.0003136 0.0005088 0.0000111 -0.0000168 -0.0007110 -0.0000439 -0.0000357 0.0001415 -0.0002428 0.0004018 -0.0005839 -0.0002614 0.0002422 -0.0003284 -0.0014022 0.0002242 -0.0001352 0.0003408 -0.0000704 0.0000882 -0.0007893 -0.0003156 -0.0006907 0.0000082 -0.0002858 0.0001130 0.0001257 -0.0000220 -0.0003732 0.0000240 -0.0010148 0.0000129 0.0000022 0.0000842 -0.0008035 0.0001571 -0.0008437 0.0001008 -0.0000956 -0.0001491 -0.0001840 0.0000258 -0.0000718
-0.0002058 -0.0003079 0.0004965 0.0000260 -0.0000150 -0.0007083 -0.0000371 -0.0000350 0.0001422 -0.0002387 0.0004017 -0.0005838 -0.0002613 0.0002422 -0.0003211 -0.0014023 0.0002267 -0.0001328 0.0003453 -0.0000688 0.0000915 -0.0007857 -0.0003136 -0.0006871 0.0000100 -0.0002825 0.0001120 0.0001230 -0.0000205 -0.0003649 0.0000269 -0.0010117 0.0000155 0.0000039 0.0000897 -0.0008002 0.0001612 -0.0008402 0.0001031 -0.0000897 -0.0001469 -0.0001757 0.0000283 -0.0000634
-0.0002061 -0.0003018 0.0005042 0.0000278 -0.0000146 -0.0007039 -0.0000392 -0.0000306 0.0001441 -0.0002353 0.0004012 -0.0005830 -0.0002606 0.0002415 -0.0003204 -0.0013981 0.0002291 -0.0001298 0.0003501 -0.0000668 0.0000953 -0.0007808 -0.0003128 -0.0006822 0.0000119 -0.0002783 0.0001119 0.0001209 -0.0000190 -0.0003551 0.0000301 -0.0010083 0.0000189 0.0000060 0.0000944 -0.0007950 0.0001649 -0.0008344 0.0001051 -0.0000833 -0.0001449 -0.0001663 0.0000309 -0.0000551
-0.0002031 -0.0002978 0.0004911 0.0000481 -0.0000116 -0.0007002 -0.0000367 -0.0000266 0.0001457 -0.0002290 0.0004006 -0.0005821 -0.0002601 0.0002410 -0.0003178 -0.0013937 0.0002313 -0.0001262 0.0003540 -0.0000635 0.0000982 -0.0007745 -0.0003121 -0.0006761 0.0000141 -0.0002733 0.0001119 0.0001192 -0.0000192 -0.0003436 0.0000318 -0.0010032 0.0000216 0.0000093 0.0000987 -0.0007887 0.0001694 -0.0008280 0.0001071 -0.0000762 -0.0001419 -0.0001587 0.0000335 -0.0000466
-0.0002034 -0.0002939 0.0004792 0.0000640 -0.0000081 -0.0006943 -0.0000316 -0.0000340 0.0001460 -0.0002228 0.0003992 -0.0005801 -0.0002601 0.0002408 -0.0003132 -0.0013907 0.0002329 -0.0001212 0.0003582 -0.0000596 0.0001024 -0.0007671 -0.0003130 -0.0006726 0.0000158 -0.0002675 0.0001119 0.0001175 -0.0000194 -0.0003312 0.0000352 -0.0009988 0.0000247 0.0000123 0.0001031 -0.0007817 0.0001738 -0.0008201 0.0001095 -0.0000693 -0.0001396 -0.0001498 0.0000361 -0.0000387
-0.0002020 -0.0002939 0.0004636 0.0000753 -0.0000064 -0.0006897 -0.0000264 -0.0000406 0.0001459 -0.0002153 0.0003984 -0.0005788 -0.0002629 0.0002433 -0.0003090 -0.0013902 0.0002353 -0.0001203 0.0003623 -0.0000592 0.0001080 -0.0007724 -0.0003130 -0.0006723 0.0000180 -0.0002666 0.0001124 0.0001155 -0.0000180 -0.0003325 0.0000393 -0.0010027 0.0000274 0.0000040 0.0001087 -0.0007883 0.0001794 -0.0008299 0.0001105 -0.0000778 -0.0001367 -0.0001577 0.0000390 -0.0000451
-0.0002018 -0.0002904 0.0004628 0.0000788 0.0000023 -0.0006945 -0.0000199 -0.0000439 0.0001492 -0.0002143 0.0003961 -0.0005757 -0.0002629 0.0002433 -0.0003032 -0.0013929 0.0002371 -0.0001191 0.0003659 -0.0000596 0.0001117 -0.0007742 -0.0003119 -0.0006697 0.0000204 -0.0002656 0.0001135 0.0001151 -0.0000191 -0.0003286 0.0000434 -0.0010042 0.0000302 0.0000018 0.0001123 -0.0007882 0.0001839 -0.0008313 0.0001121 -0.0000787 -0.0001339 -0.0001601 0.0000418 -0.0000451
-0.0002002 -0.0002864 0.0004601 0.0000934 0.0000032 -0.0006919 -0.0000222 -0.0000454 0.0001513 -0.0002098 0.0003924 -0.0005705 -0.0002624 0.0002429 -0.0003007 -0.0013884 0.0002391 -0.0001164 0.0003702 -0.0000592 0.0001153 -0.0007731 -0.0003096 -0.0006654 0.0000224 -0.0002627 0.0001147 0.0001154 -0.0000190 -0.0003224 0.0000474 -0.0010043 0.0000329 0.0000023 0.0001162 -0.0007868 0.0001890 -0.0008326 0.0001137 -0.0000775 -0.0001305 -0.0001597 0.0000443 -0.0000431
-0.0001968 -0.0002825 0.0004680 0.0000880 0.0000040 -0.0006896 -0.0000186 -0.0000413 0.0001546 -0.0002055 0.0003898 -0.0005668 -0.0002621 0.0002426 -0.0002925 -0.0013861 0.0002407 -0.0001131 0.0003732 -0.0000573 0.0001192 -0.0007709 -0.0003080 -0.0006615 0.0000245 -0.0002600 0.0001162 0.0001159 -0.0000203 -0.0003155 0.0000505 -0.0010011 0.0000347 0.0000057 0.0001187 -0.0007828 0.0001933 -0.0008297 0.0001149 -0.0000722 -0.0001268 -0.0001564 0.0000467 -0.0000381
-0.0001930 -0.0002811 0.0004751 0.0000895 0.0000049 -0.0006807 -0.0000225 -0.0000408 0.0001558 -0.0001992 0.0003898 -0.0005667 -0.0002629 0.0002434 -0.0002909 -0.0013825 0.0002427 -0.0001094 0.0003763 -0.0000544 0.0001234 -0.0007666 -0.0003068 -0.0006625 0.0000258 -0.0002560 0.0001170 0.0001162 -0.0000219 -0.0003081 0.0000537 -0.0009973 0.0000375 0.0000084 0.0001212 -0.0007777 0.0001986 -0.0008279 0.0001149 -0.0000657 -0.0001238 -0.0001526 0.0000490 -0.0000332
-0.0001911 -0.0002773 0.0004706 0.0001020 0.0000076 -0.0006735 -0.0000154 -0.0000434 0.0001583 -0.0001945 0.0003883 -0.0005644 -0.0002650 0.0002453 -0.0002938 -0.0013711 0.0002444 -0.0001057 0.0003789 -0.0000512 0.0001269 -0.0007621 -0.0003032 -0.0006616 0.0000270 -0.0002517 0.0001180 0.0001172 -0.0000240 -0.0003002 0.0000575 -0.0009956 0.0000398 0.0000117 0.0001234 -0.0007730 0.0002029 -0.0008247 0.0001156 -0.0000607 -0.0001182 -0.0001516 0.0000518 -0.0000290
-0.0001901 -0.0002715 0.0004900 0.0000932 0.0000080 -0.0006659 -0.0000215 -0.0000385 0.0001606 -0.0001899 0.0003870 -0.0005625 -0.0002654 0.0002456 -0.0002934 -0.0013660 0.0002461 -0.0001015 0.0003815 -0.0000483 0.0001307 -0.0007574 -0.0003001 -0.0006634 0.0000283 -0.0002473 0.0001190 0.0001190 -0.0000244 -0.0002936 0.0000606 -0.0009921 0.0000420 0.0000150 0.0001256 -0.0007677 0.0002076 -0.0008219 0.0001159 -0.0000552 -0.0001145 -0.0001494 0.0000539 -0.0000240
-0.0001902 -0.0002682 0.0004788 0.0001078 0.0000106 -0.0006615 -0.0000300 -0.0000334 0.0001613 -0.0001834 0.0003849 -0.0005595 -0.0002659 0.0002460 -0.0002889 -0.0013644 0.0002473 -0.0000964 0.0003841 -0.0000440 0.0001347 -0.0007509 -0.0003023 -0.0006567 0.0000297 -0.0002423 0.0001205 0.0001209 -0.0000267 -0.0002845 0.0000632 -0.0009876 0.0000445 0.0000186 0.0001275 -0.0007619 0.0002125 -0.0008204 0.0001156 -0.0000498 -0.0001112 -0.0001487 0.0000562 -0.0000212
-0.0001887 -0.0002636 0.0004778 0.0001120 0.0000101 -0.0006526 -0.0000236 -0.0000349 0.0001632 -0.0001779 0.0003833 -0.0005571 -0.0002660 0.0002461 -0.0002866 -0.0013597 0.0002480 -0.0000917 0.0003868 -0.0000414 0.0001376 -0.0007472 -0.0003033 -0.0006512 0.0000311 -0.0002387 0.0001221 0.0001229 -0.0000278 -0.0002788 0.0000656 -0.0009846 0.0000468 0.0000205 0.0001300 -0.0007593 0.0002176 -0.0008214 0.0001158 -0.0000473 -0.0001070 -0.0001537 0.0000592 -0.0000237
-0.0001867 -0.0002602 0.0004866 0.0001168 0.0000122 -0.0006503 -0.0000263 -0.0000334 0.0001666 -0.0001747 0.0003820 -0.0005552 -0.0002653 0.0002455 -0.0002861 -0.0013538 0.0002497 -0.0000887 0.0003899 -0.0000407 0.0001411 -0.0007463 -0.0003015 -0.0006437 0.0000334 -0.0002364 0.0001240 0.0001260 -0.0000295 -0.0002744 0.0000686 -0.0009841 0.0000484 0.0000218 0.0001310 -0.0007566 0.0002227 -0.0008234 0.0001158 -0.0000456 -0.0001031 -0.0001577 0.0000616 -0.0000253
-0.0001846 -0.0002520 0.0004859 0.0001185 0.0000111 -0.0006472 -0.0000197 -0.0000377 0.0001695 -0.0001697 0.0003786 -0.0005504 -0.0002635 0.0002438 -0.0002782 -0.0013539 0.0002517 -0.0000872 0.0003921 -0.0000395 0.0001450 -0.0007476 -0.0002970 -0.0006391 0.0000349 -0.0002342 0.0001262 0.0001282 -0.0000313 -0.0002721 0.0000714 -0.0009832 0.0000502 0.0000213 0.0001325 -0.0007553 0.0002281 -0.0008273 0.0001157 -0.0000457 -0.0000995 -0.0001648 0.0000641 -0.0000282
-0.0001846 -0.0002468 0.0004846 0.0001196 0.0000163 -0.0006487 -0.0000204 -0.0000375 0.0001717 -0.0001661 0.0003767 -0.0005475 -0.0002615 0.0002420 -0.0002745 -0.0013515 0.0002528 -0.0000851 0.0003943 -0.0000390 0.0001487 -0.0007489 -0.0002954 -0.0006308 0.0000369 -0.0002331 0.0001278 0.0001312 -0.0000318 -0.0002714 0.0000740 -0.0009828 0.0000516 0.0000208 0.0001339 -0.0007558 0.0002334 -0.0008328 0.0001155 -0.0000462 -0.0000953 -0.0001726 0.0000669 -0.0000323
-0.0001813 -0.0002399 0.0004951 0.0001142 0.0000179 -0.0006437 -0.0000207 -0.0000287 0.0001752 -0.0001621 0.0003764 -0.0005468 -0.0002616 0.0002420 -0.0002680 -0.0013531 0.0002542 -0.0000844 0.0003962 -0.0000397 0.0001518 -0.0007510 -0.0002948 -0.0006209 0.0000382 -0.0002322 0.0001296 0.0001346 -0.0000331 -0.0002714 0.0000766 -0.0009834 0.0000533 0.0000194 0.0001352 -0.0007574 0.0002385 -0.0008394 0.0001147 -0.0000472 -0.0000915 -0.0001809 0.0000694 -0.0000369
-0.0001802 -0.0002311 0.0005013 0.0001195 0.0000269 -0.0006501 -0.0000193 -0.0000290 0.0001779 -0.0001598 0.0003749 -0.0005445 -0.0002601 0.0002406 -0.0002620 -0.0013533 0.0002548 -0.0000806 0.0003974 -0.0000384 0.0001541 -0.0007444 -0.0002925 -0.0006119 0.0000396 -0.0002273 0.0001311 0.0001386 -0.0000349 -0.0002616 0.0000794 -0.0009750 0.0000547 0.0000279 0.0001332 -0.0007454 0.0002429 -0.0008241 0.0001146 -0.0000308 -0.0000906 -0.0001618 0.0000706 -0.0000181
-0.0001772 -0.0002248 0.0004936 0.0001361 0.0000217 -0.0006363 -0.0000182 -0.0000227 0.0001785 -0.0001477 0.0003728 -0.0005413 -0.0002573 0.0002383 -0.0002540 -0.0013466 0.0002561 -0.0000722 0.0003983 -0.0000312 0.0001556 -0.0007237 -0.0002920 -0.0005975 0.0000407 -0.0002180 0.0001327 0.0001452 -0.0000362 -0.0002461 0.0000815 -0.0009622 0.0000563 0.0000357 0.0001341 -0.0007342 0.0002472 -0.0008152 0.0001136 -0.0000172 -0.0000878 -0.0001556 0.0000730 -0.0000097
-0.0001726 -0.0002167 0.0004943 0.0001433 0.0000255 -0.0006293 -0.0000224 -0.0000095 0.0001812 -0.0001391 0.0003684 -0.0005350 -0.0002558 0.0002369 -0.0002538 -0.0013350 0.0002570 -0.0000664 0.0003987 -0.0000259 0.0001578 -0.0007126 -0.0002905 -0.0005861 0.0000417 -0.0002109 0.0001348 0.0001512 -0.0000378 -0.0002368 0.0000833 -0.0009537 0.0000578 0.0000400 0.0001346 -0.0007277 0.0002514 -0.0008099 0.0001125 -0.0000099 -0.0000839 -0.0001550 0.0000746 -0.0000056
-0.0001679 -0.0002108 0.0005002 0.0001430 0.0000303 -0.0006264 -0.0000206 -0.0000042 0.0001823 -0.0001315 0.0003659 -0.0005313 -0.0002557 0.0002366 -0.0002539 -0.0013227 0.0002579 -0.0000608 0.0003989 -0.0000222 0.0001598 -0.0007040 -0.0002857 -0.0005790 0.0000433 -0.0002050 0.0001366 0.0001567 -0.0000395 -0.0002281 0.0000845 -0.0009464 0.0000596 0.0000425 0.0001346 -0.0007213 0.0002556 -0.0008063 0.0001107 -0.0000040 -0.0000811 -0.0001565 0.0000771 -0.0000052
-0.0001638 -0.0002053 0.0005010 0.0001454 0.0000280 -0.0006181 -0.0000161 -0.0000024 0.0001827 -0.0001242 0.0003633 -0.0005277 -0.0002538 0.0002348 -0.0002465 -0.0013175 0.0002578 -0.0000560 0.0003995 -0.0000198 0.0001617 -0.0007007 -0.0002811 -0.0005699 0.0000446 -0.0002005 0.0001382 0.0001616 -0.0000420 -0.0002218 0.0000855 -0.0009418 0.0000601 0.0000439 0.0001349 -0.0007185 0.0002608 -0.0008076 0.0001098 -0.0000016 -0.0000776 -0.0001613 0.0000792 -0.0000063
-0.0001608 -0.0001984 0.0005099 0.0001402 0.0000309 -0.0006154 -0.0000252 0.0000142 0.0001832 -0.0001187 0.0003621 -0.0005257 -0.0002536 0.0002345 -0.0002435 -0.0013103 0.0002580 -0.0000521 0.0004006 -0.0000186 0.0001647 -0.0006985 -0.0002784 -0.0005655 0.0000454 -0.0001975 0.0001394 0.0001638 -0.0000435 -0.0002163 0.0000869 -0.0009374 0.0000609 0.0000444 0.0001356 -0.0007160 0.0002652 -0.0008090 0.0001083 0.0000014 -0.0000738 -0.0001661 0.0000810 -0.0000078
-0.0001563 -0.0001914 0.0005258 0.0001344 0.0000351 -0.0006153 -0.0000287 0.0000222 0.0001846 -0.0001154 0.0003619 -0.0005254 -0.0002528 0.0002338 -0.0002441 -0.0012993 0.0002582 -0.0000492 0.0004012 -0.0000174 0.0001667 -0.0006982 -0.0002752 -0.0005576 0.0000467 -0.0001958 0.0001402 0.0001656 -0.0000441 -0.0002126 0.0000876 -0.0009338 0.0000619 0.0000434 0.0001356 -0.0007146 0.0002694 -0.0008126 0.0001067 0.0000028 -0.0000706 -0.0001722 0.0000832 -0.0000105
-0.0001548 -0.0001772 0.0005219 0.0001444 0.0000346 -0.0006134 -0.0000336 0.0000348 0.0001854 -0.0001124 0.0003593 -0.0005216 -0.0002502 0.0002314 -0.0002444 -0.0012863 0.0002584 -0.0000435 0.0004015 -0.0000128 0.0001671 -0.0006856 -0.0002715 -0.0005473 0.0000467 -0.0001892 0.0001413 0.0001680 -0.0000463 -0.0001977 0.0000873 -0.0009239 0.0000623 0.0000509 0.0001352 -0.0007036 0.0002734 -0.0008055 0.0001054 0.0000161 -0.0000673 -0.0001689 0.0000851 -0.0000033
-0.0001500 -0.0001697 0.0005274 0.0001463 0.0000328 -0.0006055 -0.0000301 0.0000408 0.0001851 -0.0001063 0.0003587 -0.0005207 -0.0002479 0.0002293 -0.0002463 -0.0012705 0.0002588 -0.0000376 0.0004020 -0.0000081 0.0001682 -0.0006750 -0.0002689 -0.0005362 0.0000471 -0.0001830 0.0001419 0.0001701 -0.0000477 -0.0001849 0.0000865 -0.0009133 0.0000630 0.0000576 0.0001343 -0.0006933 0.0002772 -0.0007984 0.0001032 0.0000293 -0.0000639 -0.0001629 0.0000865 0.0000054
-0.0001469 -0.0001608 0.0005386 0.0001479 0.0000312 -0.0005976 -0.0000348 0.0000540 0.0001855 -0.0001004 0.0003583 -0.0005200 -0.0002455 0.0002269 -0.0002414 -0.0012634 0.0002589 -0.0000312 0.0004017 -0.0000027 0.0001689 -0.0006635 -0.0002685 -0.0005277 0.0000475 -0.0001769 0.0001420 0.0001722 -0.0000498 -0.0001712 0.0000845 -0.0009005 0.0000634 0.0000637 0.0001333 -0.0006826 0.0002807 -0.0007901 0.0001013 0.0000419 -0.0000616 -0.0001582 0.0000877 0.0000136
-0.0001455 -0.0001549 0.0005445 0.0001480 0.0000315 -0.0005923 -0.0000300 0.0000500 0.0001841 -0.0000940 0.0003596 -0.0005217 -0.0002417 0.0002235 -0.0002467 -0.0012469 0.0002589 -0.0000253 0.0004019 0.0000026 0.0001699 -0.0006533 -0.0002667 -0.0005204 0.0000475 -0.0001705 0.0001420 0.0001731 -0.0000512 -0.0001576 0.0000817 -0.0008894 0.0000641 0.0000680 0.0001326 -0.0006734 0.0002849 -0.0007847 0.0000993 0.0000517 -0.0000587 -0.0001561 0.0000898 0.0000186
-0.0001457 -0.0001486 0.0005390 0.0001514 0.0000321 -0.0005917 -0.0000327 0.0000579 0.0001850 -0.0000910 0.0003581 -0.0005199 -0.0002391 0.0002210 -0.0002439 -0.0012358 0.0002582 -0.0000191 0.0004013 0.0000081 0.0001703 -0.0006433 -0.0002677 -0.0005126 0.0000471 -0.0001648 0.0001421 0.0001729 -0.0000534 -0.0001445 0.0000799 -0.0008789 0.0000637 0.0000730 0.0001322 -0.0006642 0.0002885 -0.0007778 0.0000976 0.0000612 -0.0000551 -0.0001553 0.0000916 0.0000235
-0.0001444 -0.0001434 0.0005404 0.0001572 0.0000353 -0.0005924 -0.0000400 0.0000627 0.0001853 -0.0000872 0.0003561 -0.0005171 -0.0002371 0.0002192 -0.0002395 -0.0012328 0.0002571 -0.0000122 0.0004012 0.0000131 0.0001709 -0.0006337 -0.0002648 -0.0005106 0.0000471 -0.0001599 0.0001421 0.0001726 -0.0000552 -0.0001321 0.0000770 -0.0008681 0.0000637 0.0000773 0.0001313 -0.0006546 0.0002921 -0.0007722 0.0000945 0.0000721 -0.0000532 -0.0001533 0.0000930 0.0000280
-0.0001421 -0.0001373 0.0005255 0.0001749 0.0000362 -0.0005930 -0.0000367 0.0000658 0.0001852 -0.0000831 0.0003568 -0.0005180 -0.0002356 0.0002179 -0.0002415 -0.0012208 0.0002552 -0.0000059 0.0004015 0.0000171 0.0001719 -0.0006274 -0.0002623 -0.0005019 0.0000471 -0.0001557 0.0001426 0.0001723 -0.0000575 -0.0001218 0.0000751 -0.0008626 0.0000636 0.0000762 0.0001323 -0.0006523 0.0002963 -0.0007812 0.0000920 0.0000706 -0.0000475 -0.0001742 0.0000958 0.0000145
-0.0001403 -0.0001322 0.0005366 0.0001614 0.0000365 -0.0005928 -0.0000274 0.0000610 0.0001871 -0.0000876 0.0003606 -0.0005232 -0.0002370 0.0002193 -0.0002407 -0.0012165 0.0002547 -0.0000052 0.0004017 0.0000174 0.0001731 -0.0006296 -0.0002597 -0.0005022 0.0000467 -0.0001548 0.0001418 0.0001691 -0.0000590 -0.0001162 0.0000730 -0.0008585 0.0000636 0.0000761 0.0001319 -0.0006496 0.0002998 -0.0007798 0.0000899 0.0000749 -0.0000423 -0.0001803 0.0000975 0.0000145
-0.0001394 -0.0001299 0.0005364 0.0001527 0.0000385 -0.0005962 -0.0000312 0.0000641 0.0001878 -0.0000876 0.0003617 -0.0005248 -0.0002373 0.0002195 -0.0002381 -0.0012128 0.0002536 -0.0000015 0.0004022 0.0000195 0.0001749 -0.0006255 -0.0002590 -0.0004987 0.0000465 -0.0001523 0.0001412 0.0001667 -0.0000608 -0.0001046 0.0000708 -0.0008494 0.0000632 0.0000809 0.0001305 -0.0006413 0.0003038 -0.0007750 0.0000883 0.0000846 -0.0000380 -0.0001787 0.0000985 0.0000219
-0.0001374 -0.0001265 0.0005300 0.0001649 0.0000345 -0.0005880 -0.0000366 0.0000725 0.0001875 -0.0000858 0.0003623 -0.0005256 -0.0002354 0.0002177 -0.0002369 -0.0012068 0.0002523 0.0000027 0.0004011 0.0000243 0.0001758 -0.0006181 -0.0002578 -0.0004981 0.0000459 -0.0001493 0.0001406 0.0001637 -0.0000624 -0.0000931 0.0000679 -0.0008383 0.0000635 0.0000858 0.0001297 -0.0006334 0.0003073 -0.0007692 0.0000870 0.0000939 -0.0000342 -0.0001765 0.0000995 0.0000293
-0.0001371 -0.0001283 0.0005273 0.0001697 0.0000360 -0.0005861 -0.0000410 0.0000755 0.0001848 -0.0000844 0.0003650 -0.0005296 -0.0002368 0.0002191 -0.0002412 -0.0011974 0.0002500 0.0000088 0.0004002 0.0000297 0.0001765 -0.0006077 -0.0002599 -0.0004976 0.0000450 -0.0001453 0.0001399 0.0001607 -0.0000640 -0.0000798 0.0000645 -0.0008271 0.0000627 0.0000926 0.0001283 -0.0006238 0.0003103 -0.0007626 0.0000857 0.0001043 -0.0000300 -0.0001729 0.0001009 0.0000364
-0.0001356 -0.0001274 0.0005280 0.0001720 0.0000332 -0.0005785 -0.0000490 0.0000874 0.0001842 -0.0000830 0.0003671 -0.0005325 -0.0002354 0.0002178 -0.0002396 -0.0011901 0.0002483 0.0000143 0.0003991 0.0000344 0.0001775 -0.0005992 -0.0002579 -0.0004940 0.0000442 -0.0001411 0.0001397 0.0001583 -0.0000657 -0.0000669 0.0000604 -0.0008165 0.0000629 0.0000989 0.0001274 -0.0006151 0.0003131 -0.0007570 0.0000838 0.0001142 -0.0000252 -0.0001709 0.0001020 0.0000429
-0.0001366 -0.0001263 0.0005298 0.0001715 0.0000324 -0.0005782 -0.0000461 0.0000878 0.0001829 -0.0000820 0.0003669 -0.0005324 -0.0002353 0.0002176 -0.0002400 -0.0011824 0.0002468 0.0000199 0.0003983 0.0000397 0.0001779 -0.0005910 -0.0002567 -0.0004935 0.0000430 -0.0001367 0.0001388 0.0001561 -0.0000689 -0.0000532 0.0000574 -0.0008070 0.0000625 0.0001049 0.0001267 -0.0006068 0.0003159 -0.0007560 0.0000826 0.0001197 -0.0000192 -0.0001807 0.0001046 0.0000392
-0.0001362 -0.0001297 0.0005242 0.0001633 0.0000279 -0.0005787 -0.0000429 0.0000867 0.0001835 -0.0000856 0.0003697 -0.0005364 -0.0002345 0.0002169 -0.0002369 -0.0011838 0.0002459 0.0000186 0.0003983 0.0000389 0.0001793 -0.0006017 -0.0002550 -0.0004965 0.0000431 -0.0001409 0.0001382 0.0001510 -0.0000703 -0.0000567 0.0000557 -0.0008115 0.0000627 0.0000982 0.0001284 -0.0006175 0.0003198 -0.0007780 0.0000821 0.0001043 -0.0000110 -0.0002124 0.0001081 0.0000160
-0.0001359 -0.0001355 0.0005243 0.0001481 0.0000302 -0.0005906 -0.0000420 0.0000860 0.0001846 -0.0000977 0.0003726 -0.0005407 -0.0002352 0.0002175 -0.0002401 -0.0011846 0.0002446 0.0000139 0.0003989 0.0000323 0.0001818 -0.0006215 -0.0002532 -0.0005030 0.0000434 -0.0001493 0.0001381 0.0001440 -0.0000710 -0.0000639 0.0000539 -0.0008163 0.0000623 0.0000949 0.0001282 -0.0006262 0.0003244 -0.0007906 0.0000822 0.0000960 -0.0000057 -0.0002258 0.0001108 0.0000076
-0.0001376 -0.0001429 0.0005491 0.0001158 0.0000285 -0.0005968 -0.0000400 0.0000824 0.0001831 -0.0001056 0.0003783 -0.0005487 -0.0002352 0.0002174 -0.0002354 -0.0011897 0.0002432 0.0000120 0.0003999 0.0000281 0.0001838 -0.0006298 -0.0002527 -0.0005082 0.0000436 -0.0001548 0.0001374 0.0001374 -0.0000712 -0.0000636 0.0000518 -0.0008150 0.0000625 0.0000953 0.0001278 -0.0006291 0.0003277 -0.0007983 0.0000837 0.0000926 0.0000007 -0.0002359 0.0001138 0.0000035
-0.0001393 -0.0001480 0.0005531 0.0000960 0.0000236 -0.0005981 -0.0000339 0.0000749 0.0001841 -0.0001144 0.0003797 -0.0005508 -0.0002330 0.0002154 -0.0002350 -0.0011898 0.0002415 0.0000109 0.0004006 0.0000255 0.0001865 -0.0006354 -0.0002545 -0.0005095 0.0000433 -0.0001592 0.0001368 0.0001315 -0.0000716 -0.0000610 0.0000504 -0.0008124 0.0000619 0.0000976 0.0001279 -0.0006314 0.0003312 -0.0008040 0.0000866 0.0000904 0.0000083 -0.0002422 0.0001159 0.0000033
-0.0001413 -0.0001533 0.0005389 0.0001017 0.0000234 -0.0006030 -0.0000420 0.0000782 0.0001830 -0.0001210 0.0003807 -0.0005524 -0.0002320 0.0002144 -0.0002363 -0.0011886 0.0002403 0.0000109 0.0004005 0.0000238 0.0001884 -0.0006365 -0.0002538 -0.0005140 0.0000427 -0.0001624 0.0001359 0.0001264 -0.0000715 -0.0000574 0.0000482 -0.0008085 0.0000622 0.0001001 0.0001280 -0.0006323 0.0003340 -0.0008081 0.0000884 0.0000908 0.0000157 -0.0002473 0.0001189 0.0000031
-0.0001411 -0.0001592 0.0005358 0.0000966 0.0000193 -0.0006029 -0.0000415 0.0000744 0.0001831 -0.0001275 0.0003821 -0.0005545 -0.0002300 0.0002127 -0.0002370 -0.0011880 0.0002389 0.0000107 0.0004004 0.0000227 0.0001894 -0.0006383 -0.0002528 -0.0005111 0.0000424 -0.0001651 0.0001357 0.0001238 -0.0000709 -0.0000562 0.0000471 -0.0008065 0.0000625 0.0001028 0.0001281 -0.0006348 0.0003373 -0.0008142 0.0000911 0.0000886 0.0000220 -0.0002518 0.0001223 0.0000017
-0.0001427 -0.0001632 0.0005312 0.0000937 0.0000170 -0.0006053 -0.0000404 0.0000801 0.0001839 -0.0001330 0.0003837 -0.0005567 -0.0002280 0.0002109 -0.0002346 -0.0011902 0.0002374 0.0000104 0.0004007 0.0000201 0.0001899 -0.0006396 -0.0002522 -0.0005117 0.0000420 -0.0001678 0.0001360 0.0001212 -0.0000708 -0.0000561 0.0000455 -0.0008054 0.0000624 0.0001013 0.0001303 -0.0006420 0.0003408 -0.0008303 0.0000935 0.0000770 0.0000310 -0.0002764 0.0001268 -0.0000165
-0.0001432 -0.0001733 0.0005320 0.0000816 0.0000202 -0.0006159 -0.0000293 0.0000654 0.0001848 -0.0001448 0.0003861 -0.0005602 -0.0002256 0.0002087 -0.0002312 -0.0011988 0.0002366 0.0000027 0.0004014 0.0000101 0.0001934 -0.0006626 -0.0002522 -0.0005180 0.0000433 -0.0001791 0.0001356 0.0001161 -0.0000689 -0.0000722 0.0000458 -0.0008139 0.0000636 0.0000915 0.0001321 -0.0006607 0.0003451 -0.0008508 0.0000978 0.0000568 0.0000388 -0.0002953 0.0001307 -0.0000317
-0.0001446 -0.0001786 0.0005231 0.0000778 0.0000200 -0.0006247 -0.0000272 0.0000625 0.0001866 -0.0001563 0.0003859 -0.0005600 -0.0002264 0.0002094 -0.0002312 -0.0012048 0.0002352 -0.0000036 0.0004026 0.0000001 0.0001967 -0.0006787 -0.0002507 -0.0005232 0.0000440 -0.0001891 0.0001359 0.0001125 -0.0000668 -0.0000829 0.0000456 -0.0008182 0.0000640 0.0000869 0.0001339 -0.0006756 0.0003485 -0.0008661 0.0001034 0.0000413 0.0000463 -0.0003102 0.0001352 -0.0000433
-0.0001460 -0.0001830 0.0005091 0.0000704 0.0000171 -0.0006300 -0.0000186 0.0000553 0.0001876 -0.0001662 0.0003855 -0.0005594 -0.0002259 0.0002090 -0.0002310 -0.0012089 0.0002338 -0.0000099 0.0004034 -0.0000088 0.0001991 -0.0006922 -0.0002469 -0.0005270 0.0000450 -0.0001995 0.0001367 0.0001094 -0.0000645 -0.0000937 0.0000476 -0.0008252 0.0000648 0.0000821 0.0001358 -0.0006907 0.0003513 -0.0008815 0.0001098 0.0000259 0.0000546 -0.0003249 0.0001403 -0.0000550
-0.0001461 -0.0001856 0.0005157 0.0000509 0.0000203 -0.0006387 -0.0000185 0.0000569 0.0001889 -0.0001766 0.0003855 -0.0005593 -0.0002254 0.0002084 -0.0002301 -0.0012149 0.0002329 -0.0000159 0.0004049 -0.0000187 0.0002011 -0.0007029 -0.0002463 -0.0005289 0.0000464 -0.0002094 0.0001373 0.0001072 -0.0000607 -0.0001045 0.0000489 -0.0008286 0.0000661 0.0000788 0.0001381 -0.0007044 0.0003541 -0.0008952 0.0001162 0.0000124 0.0000637 -0.0003382 0.0001448 -0.0000639
-0.0001466 -0.0001882 0.0005176 0.0000445 0.0000224 -0.0006456 -0.0000135 0.0000534 0.0001905 -0.0001867 0.0003843 -0.0005576 -0.0002240 0.0002072 -0.0002306 -0.0012189 0.0002321 -0.0000222 0.0004071 -0.0000295 0.0002037 -0.0007150 -0.0002441 -0.0005282 0.0000484 -0.0002198 0.0001379 0.0001063 -0.0000561 -0.0001165 0.0000505 -0.0008349 0.0000676 0.0000741 0.0001406 -0.0007206 0.0003566 -0.0009113 0.0001237 -0.0000033 0.0000720 -0.0003510 0.0001496 -0.0000742
-0.0001456 -0.0001891 0.0005265 0.0000202 0.0000203 -0.0006503 -0.0000089 0.0000521 0.0001909 -0.0001960 0.0003843 -0.0005575 -0.0002210 0.0002043 -0.0002336 -0.0012154 0.0002321 -0.0000302 0.0004085 -0.0000405 0.0002065 -0.0007283 -0.0002465 -0.0005217 0.0000502 -0.0002300 0.0001386 0.0001053 -0.0000510 -0.0001295 0.0000519 -0.0008408 0.0000691 0.0000690 0.0001437 -0.0007383 0.0003597 -0.0009280 0.0001319 -0.0000208 0.0000806 -0.0003645 0.0001553 -0.0000855
-0.0001431 -0.0001936 0.0005246 0.0000145 0.0000235 -0.0006576 -0.0000132 0.0000575 0.0001926 -0.0002064 0.0003845 -0.0005577 -0.0002184 0.0002018 -0.0002314 -0.0012220 0.0002321 -0.0000376 0.0004101 -0.0000516 0.0002096 -0.0007409 -0.0002476 -0.0005193 0.0000520 -0.0002403 0.0001391 0.0001039 -0.0000477 -0.0001391 0.0000534 -0.0008433 0.0000710 0.0000687 0.0001451 -0.0007493 0.0003628 -0.0009315 0.0001406 -0.0000277 0.0000872 -0.0003575 0.0001595 -0.0000792
-0.0001411 -0.0001953 0.0005105 0.0000237 0.0000254 -0.0006653 -0.0000140 0.0000618 0.0001925 -0.0002085 0.0003813 -0.0005534 -0.0002154 0.0001989 -0.0002315 -0.0012213 0.0002319 -0.0000417 0.0004122 -0.0000605 0.0002118 -0.0007457 -0.0002460 -0.0005133 0.0000540 -0.0002477 0.0001406 0.0001052 -0.0000432 -0.0001467 0.0000551 -0.0008452 0.0000727 0.0000674 0.0001481 -0.0007625 0.0003658 -0.0009433 0.0001492 -0.0000397 0.0000937 -0.0003633 0.0001650 -0.0000857
-0.0001403 -0.0001924 0.0005110 0.0000329 0.0000207 -0.0006641 -0.0000100 0.0000596 0.0001943 -0.0002161 0.0003803 -0.0005518 -0.0002106 0.0001947 -0.0002322 -0.0012206 0.0002322 -0.0000475 0.0004140 -0.0000707 0.0002143 -0.0007549 -0.0002426 -0.0005125 0.0000560 -0.0002563 0.0001417 0.0001056 -0.0000385 -0.0001588 0.0000576 -0.0008513 0.0000747 0.0000615 0.0001526 -0.0007806 0.0003685 -0.0009585 0.0001575 -0.0000573 0.0001014 -0.0003751 0.0001711 -0.0000978
-0.0001405 -0.0001911 0.0005169 0.0000155 0.0000210 -0.0006722 -0.0000112 0.0000612 0.0001961 -0.0002260 0.0003804 -0.0005520 -0.0002100 0.0001940 -0.0002323 -0.0012222 0.0002322 -0.0000543 0.0004165 -0.0000823 0.0002165 -0.0007658 -0.0002385 -0.0005106 0.0000581 -0.0002659 0.0001425 0.0001058 -0.0000322 -0.0001721 0.0000610 -0.0008594 0.0000761 0.0000554 0.0001571 -0.0008000 0.0003715 -0.0009748 0.0001663 -0.0000758 0.0001079 -0.0003875 0.0001776 -0.0001116
-0.0001396 -0.0001869 0.0005094 0.0000214 0.0000212 -0.0006779 -0.0000164 0.0000742 0.0001993 -0.0002355 0.0003784 -0.0005489 -0.0002048 0.0001892 -0.0002304 -0.0012257 0.0002329 -0.0000624 0.0004203 -0.0000971 0.0002193 -0.0007803 -0.0002379 -0.0005018 0.0000609 -0.0002770 0.0001440 0.0001060 -0.0000262 -0.0001864 0.0000650 -0.0008686 0.0000785 0.0000477 0.0001626 -0.0008217 0.0003742 -0.0009922 0.0001758 -0.0000963 0.0001156 -0.0004021 0.0001841 -0.0001259
-0.0001376 -0.0001840 0.0005137 0.0000096 0.0000234 -0.0006867 -0.0000013 0.0000628 0.0002017 -0.0002453 0.0003745 -0.0005435 -0.0002014 0.0001861 -0.0002324 -0.0012308 0.0002338 -0.0000709 0.0004244 -0.0001117 0.0002218 -0.0007944 -0.0002375 -0.0005005 0.0000640 -0.0002891 0.0001448 0.0001049 -0.0000192 -0.0002023 0.0000699 -0.0008781 0.0000810 0.0000386 0.0001682 -0.0008436 0.0003777 -0.0010108 0.0001860 -0.0001175 0.0001225 -0.0004167 0.0001908 -0.0001403
-0.0001356 -0.0001851 0.0005057 0.0000117 0.0000243 -0.0006932 -0.0000006 0.0000595 0.0002030 -0.0002560 0.0003732 -0.0005416 -0.0001979 0.0001830 -0.0002330 -0.0012337 0.0002342 -0.0000799 0.0004285 -0.0001272 0.0002252 -0.0008099 -0.0002359 -0.0004993 0.0000679 -0.0003027 0.0001463 0.0001024 -0.0000110 -0.0002193 0.0000747 -0.0008872 0.0000838 0.0000288 0.0001737 -0.0008665 0.0003816 -0.0010251 0.0001963 -0.0001357 0.0001295 -0.0004210 0.0001964 -0.0001456
-0.0001344 -0.0001836 0.0005132 0.0000043 0.0000237 -0.0006933 -0.0000031 0.0000597 0.0002047 -0.0002631 0.0003704 -0.0005377 -0.0001944 0.0001798 -0.0002354 -0.0012307 0.0002348 -0.0000830 0.0004326 -0.0001373 0.0002284 -0.0008067 -0.0002360 -0.0004932 0.0000699 -0.0003070 0.0001472 0.0001026 -0.0000047 -0.0002183 0.0000777 -0.0008817 0.0000865 0.0000315 0.0001779 -0.0008701 0.0003846 -0.0010168 0.0002062 -0.0001325 0.0001343 -0.0004022 0.0002011 -0.0001307
-0.0001345 -0.0001802 0.0005088 0.0000105 0.0000248 -0.0006869 0.0000011 0.0000558 0.0002043 -0.0002629 0.0003675 -0.0005335 -0.0001913 0.0001770 -0.0002368 -0.0012251 0.0002352 -0.0000806 0.0004364 -0.0001404 0.0002293 -0.0007869 -0.0002351 -0.0004872 0.0000712 -0.0003043 0.0001481 0.0001045 -0.0000002 -0.0002057 0.0000808 -0.0008712 0.0000893 0.0000376 0.0001832 -0.0008684 0.0003863 -0.0010082 0.0002150 -0.0001280 0.0001404 -0.0003941 0.0002061 -0.0001246
-0.0001354 -0.0001754 0.0004932 0.0000308 0.0000253 -0.0006823 0.0000055 0.0000572 0.0002064 -0.0002640 0.0003635 -0.0005279 -0.0001904 0.0001762 -0.0002395 -0.0012179 0.0002350 -0.0000799 0.0004403 -0.0001463 0.0002315 -0.0007808 -0.0002342 -0.0004808 0.0000735 -0.0003055 0.0001489 0.0001061 0.0000048 -0.0002048 0.0000846 -0.0008692 0.0000916 0.0000374 0.0001891 -0.0008757 0.0003898 -0.0010092 0.0002222 -0.0001320 0.0001454 -0.0003917 0.0002112 -0.0001260
-0.0001361 -0.0001720 0.0004838 0.0000426 0.0000246 -0.0006782 0.0000033 0.0000603 0.0002076 -0.0002666 0.0003629 -0.0005269 -0.0001882 0.0001742 -0.0002408 -0.0012146 0.0002363 -0.0000822 0.0004447 -0.0001543 0.0002338 -0.0007802 -0.0002344 -0.0004749 0.0000759 -0.0003086 0.0001499 0.0001063 0.0000105 -0.0002080 0.0000888 -0.0008705 0.0000949 0.0000337 0.0001953 -0.0008863 0.0003933 -0.0010132 0.0002290 -0.0001401 0.0001497 -0.0003940 0.0002167 -0.0001318
-0.0001360 -0.0001685 0.0005057 0.0000209 0.0000308 -0.0006818 0.0000102 0.0000625 0.0002098 -0.0002712 0.0003660 -0.0005312 -0.0001875 0.0001736 -0.0002380 -0.0012149 0.0002375 -0.0000858 0.0004497 -0.0001634 0.0002365 -0.0007833 -0.0002337 -0.0004694 0.0000791 -0.0003136 0.0001513 0.0001054 0.0000154 -0.0002129 0.0000936 -0.0008741 0.0000978 0.0000280 0.0002022 -0.0008994 0.0003970 -0.0010205 0.0002377 -0.0001533 0.0001553 -0.0004018 0.0002220 -0.0001404
-0.0001362 -0.0001673 0.0005083 0.0000126 0.0000358 -0.0006863 0.0000164 0.0000576 0.0002112 -0.0002768 0.0003659 -0.0005312 -0.0001872 0.0001733 -0.0002383 -0.0012140 0.0002388 -0.0000899 0.0004541 -0.0001727 0.0002399 -0.0007879 -0.0002329 -0.0004702 0.0000827 -0.0003199 0.0001519 0.0001036 0.0000215 -0.0002186 0.0000983 -0.0008766 0.0001008 0.0000217 0.0002088 -0.0009123 0.0004005 -0.0010268 0.0002457 -0.0001652 0.0001610 -0.0004097 0.0002275 -0.0001492
-0.0001350 -0.0001696 0.0005038 0.0000079 0.0000337 -0.0006859 0.0000223 0.0000501 0.0002125 -0.0002845 0.0003654 -0.0005304 -0.0001863 0.0001726 -0.0002376 -0.0012153 0.0002403 -0.0000943 0.0004594 -0.0001834 0.0002438 -0.0007937 -0.0002305 -0.0004688 0.0000860 -0.0003257 0.0001524 0.0001024 0.0000281 -0.0002239 0.0001029 -0.0008776 0.0001040 0.0000197 0.0002142 -0.0009215 0.0004044 -0.0010241 0.0002534 -0.0001667 0.0001636 -0.0003959 0.0002322 -0.0001409
-0.0001341 -0.0001678 0.0005017 0.0000136 0.0000333 -0.0006821 0.0000280 0.0000497 0.0002123 -0.0002835 0.0003643 -0.0005289 -0.0001858 0.0001722 -0.0002383 -0.0012103 0.0002408 -0.0000908 0.0004640 -0.0001862 0.0002454 -0.0007768 -0.0002302 -0.0004616 0.0000877 -0.0003223 0.0001530 0.0001031 0.0000322 -0.0002097 0.0001059 -0.0008653 0.0001067 0.0000305 0.0002175 -0.0009126 0.0004071 -0.0010029 0.0002603 -0.0001500 0.0001656 -0.0003675 0.0002361 -0.0001174
-0.0001348 -0.0001664 0.0005028 0.0000105 0.0000343 -0.0006755 0.0000219 0.0000525 0.0002118 -0.0002776 0.0003646 -0.0005291 -0.0001827 0.0001694 -0.0002372 -0.0011988 0.0002411 -0.0000835 0.0004680 -0.0001838 0.0002468 -0.0007562 -0.0002315 -0.0004532 0.0000898 -0.0003167 0.0001538 0.0001044 0.0000369 -0.0001963 0.0001090 -0.0008541 0.0001095 0.0000364 0.0002234 -0.0009069 0.0004104 -0.0009924 0.0002656 -0.0001405 0.0001686 -0.0003559 0.0002394 -0.0001082
-0.0001353 -0.0001670 0.0004893 0.0000268 0.0000360 -0.0006726 0.0000223 0.0000490 0.0002121 -0.0002777 0.0003640 -0.0005285 -0.0001820 0.0001687 -0.0002384 -0.0011884 0.0002421 -0.0000789 0.0004722 -0.0001838 0.0002492 -0.0007436 -0.0002329 -0.0004497 0.0000913 -0.0003124 0.0001537 0.0001042 0.0000404 -0.0001859 0.0001110 -0.0008452 0.0001120 0.0000401 0.0002292 -0.0009047 0.0004146 -0.0009852 0.0002697 -0.0001353 0.0001716 -0.0003482 0.0002426 -0.0001024
