-0.0000000 -0.0000000 -0.0000000 -0.0000000 -0.0000000 -0.0000000 -0.0000000 -0.0000000 -0.0000000 -0.0000000 -0.0000000 -0.0000000 -0.0000000 -0.0000000 -0.0000000 -0.0000000 -0.0000000 -0.0000000 -0.0000000 -0.0000000 -0.0000000 -0.0000000 -0.0000000 -0.0000000 -0.0000000 -0.0000000 -0.0000000 -0.0000000 -0.0000000 -0.0000000 -0.0000000 -0.0000000 -0.0000000 -0.0000000 -0.0000000 -0.0000000 -0.0000000 -0.0000000 -0.0000000 -0.0000000 -0.0000000 -0.0000000 -0.0000000 -0.0000000
-0.0000000 -0.0000000 -0.0000000 -0.0000000 -0.0000000 -0.0000000 -0.0000000 -0.0000000 -0.0000000 -0.0000000 -0.0000000 -0.0000000 -0.0000000 -0.0000000 -0.0000000 -0.0000000 -0.0000000 -0.0000000 -0.0000000 -0.0000000 -0.0000000 -0.0000000 -0.0000000 -0.0000000 -0.0000000 -0.0000000 -0.0000000 -0.0000000 -0.0000000 -0.0000000 -0.0000000 -0.0000000 -0.0000000 -0.0000000 -0.0000000 -0.0000000 -0.0000000 -0.0000000 -0.0000000 -0.0000000 -0.0000000 -0.0000000 -0.0000000 -0.0000000
-0.0000106 -0.0000926 -0.0000483 -0.0000043 -0.0000176 -0.0001030 0.0000023 -0.0000931 0.0000141 -0.0000374 -0.0000068 0.0000264 -0.0000869 0.0000480 -0.0001550 -0.0000047 0.0000036 -0.0000330 -0.0000168 -0.0000421 -0.0000150 0.0000243 0.0000212 0.0000366 0.0000220 0.0000241 -0.0000117 0.0000096 -0.0000055 0.0000219 0.0000029 0.0000228 0.0000058 0.0000423 0.0000233 0.0000265 0.0000058 0.0000087 0.0000072 0.0000481 0.0000168 -0.0000314 0.0000011 0.0000181
-0.0000145 -0.0001290 -0.0000463 -0.0000223 0.0000455 -0.0001715 -0.0000424 -0.0000454 0.0000110 0.0000245 0.0000162 -0.0000139 -0.0000751 0.0001284 -0.0000692 -0.0000017 0.0000022 0.0000022 -0.0000137 0.0000075 -0.0000170 0.0000551 0.0000440 0.0001119 0.0000462 0.0000823 -0.0000160 -0.0000077 -0.0000218 0.0000709 -0.0000107 0.0000524 0.0000104 0.0000955 0.0000332 0.0000824 0.0000091 0.0000216 0.0000044 0.0000842 0.0000249 -0.0000202 0.0000015 0.0000257
-0.0000460 -0.0000735 -0.0000186 -0.0000748 0.0000915 -0.0002099 0.0000367 -0.0001389 0.0000481 0.0000537 -0.0000332 0.0000046 0.0000146 0.0000530 -0.0000807 -0.0000012 -0.0000061 -0.0000170 -0.0000318 0.0000334 -0.0000192 0.0000218 0.0000096 0.0000981 0.0000416 0.0000854 -0.0000054 -0.0000905 -0.0000106 0.0000143 0.0000065 -0.0000345 0.0000233 0.0000093 0.0000385 0.0000992 0.0000228 -0.0000164 0.0000039 0.0000289 -0.0000028 -0.0000468 0.0000072 -0.0000201
-0.0000876 -0.0001135 -0.0000178 -0.0001148 -0.0000363 -0.0001859 0.0001206 -0.0003764 0.0000657 -0.0000523 0.0000072 -0.0000970 -0.0000254 0.0000206 -0.0001557 0.0000036 -0.0000111 -0.0000540 -0.0000386 -0.0000151 0.0000034 -0.0000556 0.0000147 0.0000038 0.0000097 0.0000335 0.0000054 -0.0001550 -0.0000185 -0.0000604 0.0000293 -0.0001598 0.0000413 -0.0001204 0.0000342 0.0000481 0.0000305 -0.0000609 0.0000178 -0.0000229 0.0000186 -0.0000984 0.0000181 -0.0000451
-0.0001507 -0.0001105 -0.0000348 -0.0001473 -0.0001164 -0.0001750 0.0001508 -0.0004744 0.0000873 -0.0001270 -0.0000159 -0.0001755 -0.0001575 0.0001306 -0.0003572 0.0000683 -0.0000075 -0.0000629 -0.0000436 -0.0000958 0.0000109 -0.0000409 0.0000809 -0.0000345 -0.0000063 0.0000110 -0.0000020 -0.0001927 -0.0000208 -0.0000385 0.0000406 -0.0001427 0.0000474 -0.0000639 0.0000263 0.0000168 0.0000209 -0.0000371 0.0000349 0.0000362 0.0000315 -0.0000417 0.0000293 -0.0000115
-0.0002343 -0.0001392 -0.0000334 -0.0001472 -0.0001599 -0.0003263 -0.0000158 -0.0005427 0.0000875 -0.0002049 -0.0000495 -0.0001478 -0.0001525 0.0001099 -0.0006488 0.0001329 -0.0000404 -0.0000432 -0.0000706 -0.0001938 -0.0000007 -0.0000121 0.0000678 0.0000414 -0.0000028 0.0000048 0.0000081 -0.0001337 -0.0000195 0.0000082 0.0000468 -0.0000359 0.0000552 0.0000423 0.0000217 0.0000057 0.0000230 0.0000198 0.0000358 0.0001200 0.0000045 0.0000142 0.0000293 0.0000628
-0.0002561 -0.0002525 -0.0000498 -0.0001110 -0.0002178 -0.0005059 -0.0001643 -0.0007021 0.0000448 -0.0002570 -0.0000100 -0.0000187 -0.0000630 0.0000244 -0.0007260 0.0001575 -0.0000703 0.0000315 -0.0001095 -0.0001943 0.0000039 0.0000631 0.0000523 0.0000949 0.0000026 0.0000373 -0.0000082 -0.0000595 -0.0000410 0.0000848 0.0000446 0.0000326 0.0000601 0.0001196 0.0000357 0.0000815 0.0000364 0.0000468 0.0000334 0.0001651 0.0000350 0.0000245 0.0000245 0.0000633
-0.0001975 -0.0001767 -0.0000491 -0.0001534 -0.0000698 -0.0005401 -0.0000468 -0.0006240 0.0000818 -0.0001924 0.0000855 -0.0000782 -0.0000909 0.0001423 -0.0003024 0.0000794 -0.0000306 0.0000275 -0.0000364 -0.0001192 0.0000094 0.0000304 0.0000820 0.0001727 0.0000390 0.0000718 -0.0000058 -0.0000536 -0.0000335 0.0000055 0.0000436 -0.0001275 0.0000682 -0.0000319 0.0000571 0.0001358 0.0000516 -0.0000210 0.0000371 0.0000826 0.0000555 -0.0000277 0.0000253 -0.0000350
-0.0000789 -0.0001141 -0.0000388 -0.0002816 0.0001037 -0.0005216 0.0000436 -0.0004838 0.0000959 -0.0001399 0.0001540 -0.0002017 -0.0000425 0.0001534 0.0000266 -0.0000111 0.0000014 -0.0000929 0.0000293 -0.0000995 0.0000046 -0.0000840 0.0000827 0.0001868 0.0000378 0.0000403 -0.0000070 -0.0000589 -0.0000185 -0.0001100 0.0000559 -0.0002907 0.0000783 -0.0002039 0.0000532 0.0000834 0.0000514 -0.0000818 0.0000424 0.0000142 0.0000424 -0.0000803 0.0000330 -0.0000912
0.0000275 -0.0003364 -0.0000469 -0.0003716 0.0001037 -0.0005651 -0.0000641 -0.0005261 0.0000584 -0.0001722 0.0000375 -0.0001251 0.0000108 0.0000660 -0.0000037 -0.0000284 -0.0000195 -0.0001198 0.0000207 -0.0001458 -0.0000124 -0.0000756 0.0000450 0.0001581 0.0000107 0.0000133 -0.0000350 -0.0000441 -0.0000319 -0.0000902 0.0000670 -0.0002725 0.0000801 -0.0001757 0.0000324 0.0000318 0.0000436 -0.0000657 0.0000477 0.0000448 0.0000167 -0.0000509 0.0000374 -0.0000611
0.0000707 -0.0005008 -0.0000480 -0.0003542 0.0000461 -0.0006229 -0.0000545 -0.0006107 0.0000898 -0.0002800 -0.0000014 -0.0000558 -0.0000753 0.0001199 -0.0003484 0.0000065 -0.0000457 -0.0001206 -0.0000490 -0.0002134 -0.0000044 -0.0000554 0.0000020 0.0001718 -0.0000029 -0.0000021 -0.0000112 -0.0000399 -0.0000275 -0.0000469 0.0000731 -0.0001641 0.0000801 -0.0000679 0.0000102 -0.0000196 0.0000360 -0.0000093 0.0000430 0.0001177 0.0000379 0.0000220 0.0000290 -0.0000053
0.0000863 -0.0007785 -0.0000238 -0.0003081 -0.0000273 -0.0007463 0.0000522 -0.0007067 0.0001141 -0.0003777 0.0000730 0.0001744 -0.0000240 0.0002020 -0.0007164 0.0000651 -0.0000824 -0.0001060 -0.0001371 -0.0002436 -0.0000398 0.0000394 0.0000493 0.0002538 -0.0000065 -0.0000020 0.0000487 0.0002050 -0.0000302 0.0000127 0.0000842 -0.0000381 0.0000773 0.0000632 0.0000125 -0.0000159 0.0000327 0.0000269 0.0000371 0.0001861 0.0000555 0.0002122 -0.0000178 -0.0001309
0.0001017 -0.0008602 0.0000068 -0.0003197 0.0001324 -0.0008444 0.0001029 -0.0006346 0.0000238 -0.0002405 0.0001361 0.0004438 0.0000026 0.0004084 -0.0004022 0.0000070 -0.0000573 -0.0000920 -0.0001562 -0.0001421 -0.0000573 0.0000169 0.0001594 0.0004906 0.0000388 0.0000556 0.0001108 0.0006472 -0.0000554 -0.0000705 0.0000827 -0.0001565 0.0000904 -0.0000504 0.0000295 0.0000262 0.0000428 -0.0000483 0.0000449 0.0001258 0.0000709 0.0003357 -0.0000818 -0.0003812
0.0000421 -0.0005006 0.0000125 -0.0003943 0.0004211 -0.0008387 0.0000626 -0.0002962 0.0000701 -0.0001388 0.0001858 0.0005218 -0.0000592 0.0005265 0.0001778 -0.0000921 0.0000311 -0.0001505 -0.0001253 -0.0000274 -0.0000136 -0.0001286 0.0002050 0.0006356 0.0001047 0.0001262 0.0001494 0.0007731 -0.0000586 -0.0001968 0.0000780 -0.0003565 0.0001077 -0.0002492 0.0000569 0.0000822 0.0000502 -0.0001174 0.0000469 0.0000685 0.0000413 0.0002991 -0.0000708 -0.0004156
-0.0000918 -0.0003370 0.0000082 -0.0004879 0.0004242 -0.0007560 0.0000381 -0.0001783 0.0001738 -0.0002533 0.0002333 0.0004748 -0.0000387 0.0004140 0.0002606 -0.0000818 0.0000475 -0.0002105 -0.0000927 0.0000115 0.0000054 -0.0001645 0.0001502 0.0005993 0.0001066 0.0001354 0.0001108 0.0006154 -0.0000486 -0.0001711 0.0000870 -0.0003699 0.0001121 -0.0002549 0.0000554 0.0000978 0.0000506 -0.0001002 0.0000382 0.0000830 -0.0000096 0.0002450 -0.0000140 -0.0002648
-0.0001757 -0.0004374 0.0000094 -0.0004861 0.0002423 -0.0008054 0.0000303 -0.0004173 0.0001188 -0.0002986 0.0002389 0.0005190 -0.0000043 0.0003164 -0.0003313 0.0000227 0.0000016 -0.0002261 -0.0000710 -0.0001811 -0.0000073 -0.0001516 0.0001316 0.0005972 0.0000886 0.0001466 0.0000950 0.0004725 -0.0000738 -0.0000925 0.0000877 -0.0002507 0.0001089 -0.0001293 0.0000407 0.0000976 0.0000460 -0.0000393 0.0000293 0.0001559 0.0000111 0.0002188 0.0000071 -0.0001537
-0.0002337 -0.0008164 -0.0000408 -0.0004235 0.0000639 -0.0010751 0.0000098 -0.0006470 0.0000955 -0.0003422 0.0002907 0.0007222 -0.0000407 0.0004676 -0.0010588 0.0003417 -0.0000339 -0.0002060 -0.0001001 -0.0003924 -0.0000502 -0.0000660 0.0001718 0.0006587 0.0000616 0.0001465 0.0001638 0.0005659 -0.0001048 -0.0000190 0.0000905 -0.0001043 0.0001025 0.0000371 0.0000436 0.0001140 0.0000400 0.0000233 0.0000215 0.0002473 0.0000321 0.0003284 -0.0000393 -0.0002480
-0.0002314 -0.0009541 -0.0000665 -0.0004257 0.0001188 -0.0011603 -0.0001007 -0.0006523 0.0001168 -0.0003445 0.0003204 0.0008833 -0.0000357 0.0006416 -0.0008377 0.0003242 -0.0000038 -0.0002328 -0.0001442 -0.0002940 -0.0000687 -0.0000728 0.0002103 0.0007687 0.0000622 0.0001282 0.0002585 0.0008285 -0.0001073 -0.0000841 0.0001053 -0.0002035 0.0001121 -0.0000611 0.0000220 0.0000731 0.0000381 -0.0000321 0.0000250 0.0001962 0.0000390 0.0004693 -0.0001291 -0.0005540
-0.0001843 -0.0008267 -0.0000777 -0.0004883 0.0003461 -0.0011504 -0.0001661 -0.0006281 0.0001915 -0.0003663 0.0003314 0.0010273 -0.0000053 0.0007329 -0.0004009 0.0000166 0.0000179 -0.0002964 -0.0001708 -0.0002178 -0.0000568 -0.0001692 0.0002020 0.0009375 0.0000903 0.0001193 0.0004002 0.0010655 -0.0001205 -0.0001944 0.0001173 -0.0003678 0.0001256 -0.0002458 0.0000012 -0.0000213 0.0000299 -0.0001133 0.0000373 0.0001220 0.0000523 0.0005522 -0.0002163 -0.0008238
-0.0001094 -0.0007438 -0.0000915 -0.0005177 0.0005244 -0.0011203 0.0001026 -0.0006594 0.0002151 -0.0003515 0.0004156 0.0011727 -0.0000975 0.0009382 -0.0002618 -0.0000672 0.0000065 -0.0003296 -0.0001392 -0.0002265 -0.0000509 -0.0001846 0.0002428 0.0010079 0.0000944 0.0001069 0.0005368 0.0013350 -0.0001286 -0.0001887 0.0001237 -0.0003703 0.0001311 -0.0002598 -0.0000289 -0.0001284 0.0000162 -0.0001254 0.0000466 0.0001330 0.0000360 0.0006754 -0.0002926 -0.0009640
0.0000045 -0.0007869 -0.0000509 -0.0004960 0.0005037 -0.0010341 0.0002469 -0.0006515 0.0002282 -0.0003572 0.0004491 0.0013644 -0.0001041 0.0010255 -0.0003606 -0.0000492 -0.0000188 -0.0003335 -0.0001630 -0.0002584 -0.0000550 -0.0001803 0.0002455 0.0010627 0.0000946 0.0000730 0.0006039 0.0015602 -0.0001366 -0.0001289 0.0001258 -0.0002850 0.0001286 -0.0001801 -0.0000597 -0.0001902 0.0000032 -0.0000948 0.0000446 0.0001834 0.0000354 0.0007998 -0.0003496 -0.0010218
-0.0000182 -0.0009539 -0.0000848 -0.0003904 0.0003919 -0.0010712 0.0000060 -0.0006123 0.0002582 -0.0003543 0.0004951 0.0015520 -0.0001684 0.0011222 -0.0007743 0.0000113 -0.0000439 -0.0003188 -0.0001853 -0.0003902 -0.0000553 -0.0001444 0.0002184 0.0011321 0.0000996 0.0000656 0.0006302 0.0017382 -0.0001408 -0.0000518 0.0001268 -0.0001069 0.0001172 -0.0000136 -0.0000661 -0.0001860 -0.0000077 -0.0000205 0.0000343 0.0002868 -0.0000060 0.0008739 -0.0004055 -0.0010683
-0.0000576 -0.0012179 -0.0001283 -0.0003255 0.0002784 -0.0012494 -0.0001140 -0.0008151 0.0002796 -0.0004489 0.0005271 0.0017644 -0.0002779 0.0012623 -0.0009475 -0.0000201 -0.0000618 -0.0003065 -0.0001435 -0.0004963 -0.0000928 -0.0000970 0.0003193 0.0011800 0.0001190 0.0001077 0.0006465 0.0018497 -0.0001442 -0.0000744 0.0001231 -0.0000971 0.0001216 -0.0000324 -0.0000413 -0.0001326 -0.0000021 -0.0000375 0.0000372 0.0002696 -0.0000620 0.0008315 -0.0004830 -0.0012707
-0.0000556 -0.0011987 -0.0001088 -0.0004144 0.0003849 -0.0013181 0.0000106 -0.0009847 0.0002734 -0.0004775 0.0005629 0.0018126 -0.0002567 0.0012716 -0.0007176 -0.0000620 -0.0000198 -0.0003572 -0.0001595 -0.0004592 -0.0001128 -0.0001373 0.0003602 0.0013180 0.0001676 0.0001298 0.0006744 0.0018980 -0.0001525 -0.0001697 0.0001303 -0.0002593 0.0001336 -0.0001721 -0.0000219 -0.0001102 0.0000006 -0.0001134 0.0000439 0.0001846 -0.0000874 0.0007707 -0.0005511 -0.0014681
-0.0000944 -0.0009863 -0.0000712 -0.0005368 0.0005760 -0.0012462 -0.0000318 -0.0009098 0.0002184 -0.0003667 0.0005557 0.0018353 -0.0002348 0.0012351 -0.0005633 -0.0000713 -0.0000085 -0.0003886 -0.0002079 -0.0003831 -0.0000670 -0.0002238 0.0003276 0.0014177 0.0002053 0.0001420 0.0006989 0.0019311 -0.0001421 -0.0002009 0.0001456 -0.0003170 0.0001354 -0.0001790 -0.0000261 -0.0001015 -0.0000081 -0.0001196 0.0000402 0.0002076 -0.0000829 0.0007482 -0.0005591 -0.0014611
-0.0001431 -0.0010331 -0.0000500 -0.0006123 0.0006548 -0.0012650 0.0000374 -0.0009287 0.0002104 -0.0003450 0.0005279 0.0019401 -0.0002691 0.0012973 -0.0006317 -0.0000749 -0.0000335 -0.0003936 -0.0001753 -0.0004353 -0.0000694 -0.0001959 0.0002994 0.0014334 0.0001819 0.0001468 0.0007490 0.0019015 -0.0001584 -0.0001275 0.0001373 -0.0002507 0.0001359 -0.0001102 -0.0000804 -0.0001876 -0.0000222 -0.0001010 0.0000454 0.0002485 -0.0001288 0.0008226 -0.0006184 -0.0015109
-0.0002190 -0.0012106 -0.0000877 -0.0005558 0.0006751 -0.0013495 -0.0000994 -0.0008474 0.0002277 -0.0003272 0.0005633 0.0018749 -0.0002755 0.0013784 -0.0009964 -0.0000742 -0.0000991 -0.0004068 -0.0001671 -0.0006255 -0.0001158 -0.0001338 0.0002821 0.0014046 0.0001524 0.0000295 0.0008789 0.0018001 -0.0001790 -0.0000365 0.0001236 -0.0001100 0.0001297 0.0000197 -0.0001704 -0.0003729 -0.0000488 -0.0000616 0.0000491 0.0003015 -0.0001750 0.0009979 -0.0006979 -0.0015602
-0.0003112 -0.0013947 -0.0000622 -0.0004593 0.0006307 -0.0013119 -0.0002008 -0.0007632 0.0002148 -0.0002605 0.0005581 0.0017222 -0.0002839 0.0013930 -0.0013604 -0.0000252 -0.0001830 -0.0003835 -0.0002425 -0.0007360 -0.0001295 -0.0001357 0.0002238 0.0013249 0.0001138 -0.0000976 0.0008932 0.0015723 -0.0001850 -0.0000158 0.0001252 -0.0000698 0.0001256 0.0000400 -0.0001997 -0.0004570 -0.0000522 -0.0000658 0.0000475 0.0003138 -0.0001960 0.0009372 -0.0006523 -0.0014583
-0.0004467 -0.0014736 -0.0000678 -0.0004613 0.0005411 -0.0012559 -0.0001421 -0.0009050 0.0002280 -0.0003429 0.0005359 0.0015806 -0.0002416 0.0012362 -0.0013506 0.0000148 -0.0001592 -0.0004002 -0.0002143 -0.0007306 -0.0001340 -0.0001604 0.0001254 0.0012367 0.0001117 -0.0001000 0.0008027 0.0011796 -0.0001938 -0.0000683 0.0001330 -0.0001961 0.0001377 -0.0000776 -0.0001678 -0.0003835 -0.0000288 -0.0001027 0.0000456 0.0002633 -0.0002278 0.0006788 -0.0005859 -0.0013645
-0.0005364 -0.0013970 -0.0000866 -0.0004908 0.0004536 -0.0011588 -0.0001736 -0.0009029 0.0002008 -0.0003193 0.0004684 0.0014418 -0.0001987 0.0010531 -0.0012187 0.0000091 -0.0001158 -0.0004525 -0.0002260 -0.0006388 -0.0001412 -0.0001716 0.0000802 0.0011738 0.0001401 -0.0000692 0.0007570 0.0009929 -0.0001897 -0.0000918 0.0001427 -0.0002670 0.0001452 -0.0001247 -0.0001326 -0.0002783 -0.0000174 -0.0000952 0.0000363 0.0002544 -0.0002907 0.0005632 -0.0005699 -0.0013190
-0.0005594 -0.0012992 -0.0000772 -0.0004717 0.0004222 -0.0011383 -0.0000122 -0.0009721 0.0001554 -0.0002130 0.0003961 0.0014189 -0.0003648 0.0011610 -0.0011460 -0.0000033 -0.0001512 -0.0003857 -0.0002324 -0.0005918 -0.0001303 -0.0001603 0.0001155 0.0011434 0.0001439 -0.0000222 0.0007404 0.0009900 -0.0001843 -0.0000389 0.0001350 -0.0002044 0.0001457 -0.0000611 -0.0001143 -0.0002075 -0.0000193 -0.0000545 0.0000213 0.0003023 -0.0003153 0.0005314 -0.0005525 -0.0012153
-0.0005626 -0.0012183 -0.0000534 -0.0004560 0.0004028 -0.0011091 -0.0000858 -0.0008861 0.0001721 -0.0001951 0.0004204 0.0013678 -0.0004202 0.0011861 -0.0010660 -0.0000121 -0.0001504 -0.0003261 -0.0001425 -0.0006194 -0.0001587 -0.0000660 0.0001168 0.0011150 0.0001353 0.0000440 0.0007276 0.0009129 -0.0001846 0.0000340 0.0001251 -0.0001009 0.0001476 0.0000433 -0.0000989 -0.0001138 -0.0000167 0.0000064 0.0000060 0.0003855 -0.0002114 0.0005164 -0.0004886 -0.0009670
-0.0005061 -0.0011538 -0.0000620 -0.0003977 0.0004098 -0.0010291 -0.0001665 -0.0006823 0.0001609 -0.0001242 0.0004049 0.0012842 -0.0002585 0.0009056 -0.0008998 -0.0000342 -0.0001006 -0.0002911 -0.0001496 -0.0004933 -0.0001730 0.0000368 0.0000879 0.0010156 0.0001445 0.0001106 0.0006237 0.0004630 -0.0001972 0.0001157 0.0001191 -0.0000397 0.0001490 0.0001058 -0.0000544 0.0000966 0.0000070 0.0000474 -0.0000065 0.0004438 -0.0000999 0.0005114 -0.0002651 -0.0003988
-0.0004407 -0.0010833 -0.0000943 -0.0003622 0.0003989 -0.0009917 -0.0000724 -0.0007720 0.0001070 -0.0000804 0.0002868 0.0011771 -0.0001559 0.0005403 -0.0007116 -0.0000544 -0.0000523 -0.0002869 -0.0001676 -0.0003595 -0.0001461 -0.0000426 0.0000891 0.0008320 0.0001897 0.0001219 0.0003985 -0.0003903 -0.0001974 0.0000679 0.0001170 -0.0001413 0.0001529 0.0000140 0.0000237 0.0003445 0.0000444 0.0000314 -0.0000225 0.0004263 -0.0000604 0.0003169 -0.0000120 0.0001384
-0.0004186 -0.0010467 -0.0000733 -0.0004266 0.0003672 -0.0009676 -0.0001006 -0.0008641 0.0001053 -0.0001241 0.0002387 0.0009048 -0.0002797 0.0003675 -0.0005629 -0.0000613 -0.0000360 -0.0003203 -0.0001253 -0.0003008 -0.0000999 -0.0001051 0.0000324 0.0007575 0.0002234 0.0001662 0.0002129 -0.0010425 -0.0001729 -0.0000268 0.0001139 -0.0002424 0.0001666 -0.0000738 0.0000798 0.0005385 0.0000694 0.0000288 -0.0000372 0.0004239 -0.0001109 0.0000118 0.0001097 0.0003805
-0.0003343 -0.0010490 -0.0001006 -0.0004392 0.0004292 -0.0010304 -0.0000824 -0.0007387 0.0000821 -0.0000893 0.0002686 0.0007295 -0.0003785 0.0002686 -0.0004138 -0.0001182 -0.0000193 -0.0003153 -0.0001241 -0.0002005 -0.0000730 -0.0000845 0.0000061 0.0007353 0.0002378 0.0002393 0.0000977 -0.0013280 -0.0001684 -0.0000034 0.0001092 -0.0002148 0.0001764 -0.0000173 0.0000972 0.0006680 0.0000772 0.0000744 -0.0000449 0.0004806 -0.0001969 -0.0001376 0.0001593 0.0005517
-0.0002095 -0.0010196 -0.0000881 -0.0004301 0.0004845 -0.0009822 0.0000240 -0.0006604 0.0000363 0.0000222 0.0002280 0.0007265 -0.0003636 0.0001721 -0.0002454 -0.0001494 0.0000139 -0.0002839 -0.0001587 -0.0000915 -0.0000711 -0.0000607 0.0000571 0.0007037 0.0002287 0.0003026 -0.0000164 -0.0014233 -0.0001880 0.0000773 0.0001047 -0.0001352 0.0001766 0.0000865 0.0001004 0.0007461 0.0000787 0.0001284 -0.0000518 0.0005477 -0.0002511 -0.0001701 0.0001750 0.0006724
-0.0001707 -0.0009248 -0.0000670 -0.0003682 0.0004928 -0.0008663 0.0001780 -0.0006955 0.0000726 0.0000839 0.0002070 0.0006785 -0.0003471 0.0001446 -0.0001807 -0.0001041 0.0000001 -0.0001987 -0.0000808 -0.0001195 -0.0000630 0.0000131 0.0000782 0.0007037 0.0002229 0.0003519 -0.0000361 -0.0014707 -0.0001973 0.0001501 0.0000890 -0.0000282 0.0001786 0.0001832 0.0001082 0.0008032 0.0000799 0.0001644 -0.0000637 0.0006040 -0.0002415 -0.0002224 0.0001766 0.0007226
-0.0002410 -0.0008137 -0.0001004 -0.0002876 0.0004762 -0.0007954 0.0003800 -0.0007148 0.0001079 0.0000782 0.0002148 0.0006120 -0.0003836 0.0002003 -0.0001661 -0.0001189 -0.0000048 -0.0001981 -0.0000326 -0.0001597 -0.0000581 -0.0000213 0.0000414 0.0007115 0.0002217 0.0003561 -0.0000466 -0.0014887 -0.0001988 0.0001088 0.0000826 -0.0000742 0.0001823 0.0001022 0.0001232 0.0008085 0.0000851 0.0001224 -0.0000673 0.0005510 -0.0002143 -0.0003246 0.0001764 0.0006631
-0.0003075 -0.0007822 -0.0000726 -0.0003549 0.0004433 -0.0007854 0.0002347 -0.0006522 0.0000908 0.0000661 0.0001841 0.0006122 -0.0003773 0.0002141 -0.0001681 -0.0001622 -0.0000129 -0.0002124 -0.0000627 -0.0001222 -0.0000609 -0.0000775 0.0000178 0.0007066 0.0002228 0.0003432 -0.0000628 -0.0014604 -0.0002028 0.0000397 0.0000907 -0.0001665 0.0001883 -0.0000016 0.0001280 0.0008068 0.0000898 0.0000729 -0.0000653 0.0004844 -0.0002117 -0.0003628 0.0001775 0.0005985
-0.0003198 -0.0007533 -0.0000664 -0.0004015 0.0004059 -0.0008139 0.0001172 -0.0005576 0.0000599 0.0001154 0.0001140 0.0006370 -0.0002952 0.0001430 -0.0001845 -0.0001169 -0.0000234 -0.0002162 -0.0000248 -0.0001172 -0.0000532 -0.0000780 0.0000411 0.0006786 0.0002404 0.0003361 -0.0000697 -0.0014134 -0.0002003 0.0000481 0.0000973 -0.0001623 0.0001961 0.0000219 0.0001197 0.0008175 0.0000878 0.0000770 -0.0000647 0.0004904 -0.0002410 -0.0003117 0.0001678 0.0006055
-0.0004048 -0.0006330 -0.0000973 -0.0003487 0.0003271 -0.0007374 0.0002336 -0.0005230 0.0000305 0.0001677 0.0001401 0.0006137 -0.0002659 0.0001285 -0.0001809 -0.0000346 0.0000056 -0.0002122 0.0000204 -0.0001419 -0.0000175 -0.0000754 0.0000489 0.0006607 0.0002256 0.0003647 -0.0000728 -0.0013824 -0.0002000 0.0000821 0.0000909 -0.0000928 0.0002021 0.0000884 0.0001086 0.0008230 0.0000826 0.0001130 -0.0000696 0.0005285 -0.0002844 -0.0002678 0.0001623 0.0006456
-0.0004971 -0.0005384 -0.0000563 -0.0002986 0.0003184 -0.0006218 0.0002268 -0.0003989 0.0000506 0.0002560 0.0002309 0.0004548 -0.0003854 0.0002644 -0.0000716 -0.0000123 0.0000463 -0.0001946 0.0000147 -0.0000740 -0.0000047 -0.0000316 0.0000367 0.0006556 0.0002146 0.0003619 -0.0000875 -0.0013117 -0.0002205 0.0001388 0.0000964 -0.0000610 0.0002127 0.0000849 0.0000724 0.0007711 0.0000862 0.0000988 -0.0000738 0.0004822 -0.0002507 -0.0002983 0.0001614 0.0006307
-0.0004019 -0.0004881 -0.0000075 -0.0002253 0.0003332 -0.0003379 0.0000350 0.0000575 0.0000806 0.0003551 0.0001438 0.0003942 -0.0004778 0.0003512 0.0000955 -0.0000713 0.0000537 -0.0002707 0.0000239 -0.0000298 -0.0000147 -0.0001349 0.0000167 0.0006057 0.0001844 0.0003068 -0.0001254 -0.0012115 -0.0002107 0.0000669 0.0001254 -0.0001050 0.0002222 -0.0001395 0.0000393 0.0006395 0.0000889 -0.0000362 -0.0000741 0.0003248 -0.0001932 -0.0004086 0.0001507 0.0005334
-0.0003741 -0.0008011 -0.0000521 -0.0004800 0.0001821 -0.0002341 0.0000611 0.0000461 0.0000396 0.0002168 0.0001733 0.0010048 -0.0003114 0.0002002 0.0004504 -0.0002661 0.0000989 -0.0004937 0.0001153 -0.0002208 0.0000189 -0.0001898 0.0000077 0.0007580 0.0002339 0.0003669 -0.0000731 -0.0012818 -0.0001702 0.0000178 0.0001193 -0.0000326 0.0001991 -0.0003654 0.0000148 0.0005049 0.0000605 -0.0001675 -0.0000708 0.0002223 -0.0002303 -0.0004398 0.0001481 0.0004849
-0.0006009 -0.0013972 -0.0001750 -0.0008996 -0.0001742 -0.0002662 0.0001044 -0.0001798 0.0000096 0.0000016 0.0003778 0.0015529 -0.0002865 0.0002277 0.0004962 -0.0003056 0.0001114 -0.0007666 0.0001669 -0.0004795 0.0000086 -0.0001954 -0.0000419 0.0008618 0.0002848 0.0003694 0.0000016 -0.0013552 -0.0001563 0.0000326 0.0000961 0.0000804 0.0001751 -0.0003913 -0.0000655 0.0003078 0.0000399 -0.0001406 -0.0000615 0.0001833 -0.0002552 -0.0003797 0.0001603 0.0005500
-0.0007135 -0.0019124 -0.0001826 -0.0008574 -0.0004526 -0.0000956 0.0000771 -0.0001951 0.0000469 -0.0000009 0.0003733 0.0014172 -0.0003779 0.0003815 -0.0000054 -0.0001260 0.0000061 -0.0008956 0.0001407 -0.0006628 -0.0001057 -0.0003244 -0.0000962 0.0006942 0.0001752 0.0002006 -0.0000094 -0.0012699 -0.0001624 -0.0000231 0.0000829 0.0001540 0.0001868 -0.0002641 -0.0001555 0.0000782 0.0000439 -0.0000269 -0.0000551 0.0001993 -0.0002481 -0.0003321 0.0001633 0.0006450
-0.0007104 -0.0021119 -0.0000798 -0.0005887 -0.0005122 0.0001007 0.0001900 -0.0001027 0.0000882 0.0001132 0.0003441 0.0013754 -0.0003671 0.0003847 -0.0002761 -0.0000061 -0.0000228 -0.0009771 0.0000724 -0.0007158 -0.0001904 -0.0004291 -0.0000523 0.0006458 0.0001107 0.0001022 -0.0000346 -0.0011403 -0.0001702 -0.0000520 0.0000818 0.0001688 0.0002020 -0.0002348 -0.0002177 -0.0001276 0.0000453 -0.0000166 -0.0000484 0.0001451 -0.0002345 -0.0004803 0.0001478 0.0006341
-0.0007547 -0.0021166 -0.0000464 -0.0005399 -0.0005492 0.0003346 0.0001293 0.0001934 0.0000450 0.0000674 0.0003738 0.0014580 -0.0003977 0.0002806 -0.0004557 -0.0000452 -0.0000041 -0.0010649 -0.0000032 -0.0008053 -0.0002060 -0.0005710 -0.0000413 0.0005948 0.0001102 0.0000472 -0.0001022 -0.0012218 -0.0001665 -0.0000691 0.0001303 0.0001968 0.0001990 -0.0003675 -0.0002410 -0.0003017 0.0000230 -0.0001151 -0.0000258 0.0000790 -0.0002370 -0.0006800 0.0001391 0.0005594
-0.0009041 -0.0022931 -0.0001508 -0.0007375 -0.0005781 0.0002981 0.0000767 0.0003606 0.0000821 -0.0001226 0.0004292 0.0016230 -0.0003834 0.0002208 -0.0000535 -0.0001402 0.0000388 -0.0011888 0.0001044 -0.0008340 -0.0001517 -0.0005857 -0.0000532 0.0007093 0.0001916 0.0000389 -0.0001485 -0.0014470 -0.0001271 -0.0000286 0.0001385 0.0002608 0.0001933 -0.0005546 -0.0002487 -0.0003244 -0.0000168 -0.0002851 -0.0000348 -0.0000728 -0.0002276 -0.0006398 0.0001745 0.0005398
-0.0011075 -0.0025047 -0.0003645 -0.0011998 -0.0006758 0.0008435 0.0000519 0.0006587 0.0000598 0.0003987 0.0005316 0.0017715 -0.0003101 0.0001629 0.0006618 -0.0002859 0.0000314 -0.0015953 0.0004666 -0.0013222 -0.0001481 -0.0006119 -0.0000937 0.0009238 0.0002992 -0.0000601 -0.0000925 -0.0016916 -0.0001147 -0.0000662 0.0000459 0.0002266 0.0001678 -0.0007276 -0.0002946 -0.0004157 -0.0000460 -0.0003919 -0.0000438 -0.0001718 -0.0002064 -0.0006578 0.0001876 0.0005673
-0.0012247 -0.0028540 -0.0005281 -0.0015663 -0.0007728 0.0012378 0.0000170 0.0004393 -0.0000447 0.0006777 0.0005613 0.0017949 -0.0003818 0.0001521 0.0005933 -0.0003744 -0.0000717 -0.0018807 0.0006281 -0.0020005 -0.0002323 -0.0007028 -0.0001873 0.0008957 0.0002783 -0.0002456 -0.0000359 -0.0018022 -0.0001559 -0.0001391 -0.0000142 0.0002417 0.0001421 -0.0006823 -0.0003466 -0.0006212 -0.0000634 -0.0003129 -0.0000229 -0.0000427 -0.0002307 -0.0007069 0.0001618 0.0006466
-0.0012934 -0.0029540 -0.0005325 -0.0014557 -0.0007506 0.0009638 0.0000696 0.0000873 -0.0000116 0.0004537 0.0004920 0.0017568 -0.0004639 0.0002461 0.0001292 -0.0002723 -0.0001122 -0.0018627 0.0004426 -0.0020543 -0.0003362 -0.0006919 -0.0002100 0.0007835 0.0002087 -0.0003331 -0.0000245 -0.0017037 -0.0001947 -0.0001558 -0.0000028 0.0002432 0.0001596 -0.0005530 -0.0003843 -0.0007680 -0.0000546 -0.0002291 -0.0000148 -0.0000292 -0.0002163 -0.0007140 0.0001580 0.0006330
-0.0012496 -0.0029170 -0.0004737 -0.0012265 -0.0006938 0.0009182 0.0001214 -0.0000815 0.0000757 0.0003397 0.0004065 0.0014462 -0.0003090 0.0000973 -0.0005551 -0.0000869 -0.0001619 -0.0019454 0.0002867 -0.0020959 -0.0004054 -0.0009079 -0.0002337 0.0006155 0.0001318 -0.0004640 -0.0000505 -0.0017331 -0.0002037 -0.0003323 0.0000043 0.0000493 0.0001923 -0.0005546 -0.0004168 -0.0009038 -0.0000347 -0.0002411 0.0000008 -0.0001225 -0.0002332 -0.0008070 0.0001602 0.0005012
-0.0011427 -0.0029146 -0.0004159 -0.0010773 -0.0006643 0.0009168 0.0000183 -0.0002498 0.0001399 0.0001723 0.0003575 0.0012133 -0.0001496 -0.0001049 -0.0012395 0.0000897 -0.0002317 -0.0020140 0.0002439 -0.0022562 -0.0004449 -0.0011467 -0.0002677 0.0005636 0.0000653 -0.0006006 -0.0000007 -0.0016189 -0.0001992 -0.0004911 0.0000052 -0.0000797 0.0002138 -0.0005156 -0.0004483 -0.0010392 -0.0000351 -0.0002510 0.0000180 -0.0001516 -0.0002533 -0.0007880 0.0001300 0.0003713
-0.0010825 -0.0028064 -0.0003949 -0.0009589 -0.0006836 0.0009511 0.0000424 -0.0003478 0.0001526 0.0001530 0.0003466 0.0012164 -0.0001228 -0.0001345 -0.0013671 0.0001242 -0.0002325 -0.0020102 0.0001984 -0.0022235 -0.0004924 -0.0011030 -0.0002744 0.0006700 0.0000723 -0.0006006 0.0000679 -0.0014429 -0.0002101 -0.0004732 0.0000050 -0.0000437 0.0002268 -0.0004124 -0.0004582 -0.0010503 -0.0000352 -0.0002265 0.0000175 -0.0001126 -0.0002232 -0.0007241 0.0000997 0.0003450
-0.0010346 -0.0026375 -0.0003719 -0.0008826 -0.0006541 0.0009899 0.0001710 -0.0002401 0.0001236 0.0002726 0.0003996 0.0012781 -0.0001648 0.0000366 -0.0012878 0.0002083 -0.0002187 -0.0019590 0.0001656 -0.0020688 -0.0004957 -0.0010325 -0.0002175 0.0006891 0.0000596 -0.0005705 0.0001054 -0.0012005 -0.0002263 -0.0004037 0.0000142 0.0000492 0.0002292 -0.0003216 -0.0004772 -0.0010768 -0.0000442 -0.0001865 0.0000148 -0.0000410 -0.0002218 -0.0006584 0.0000740 0.0003659
-0.0009988 -0.0024671 -0.0003554 -0.0008073 -0.0006460 0.0009603 0.0000758 -0.0000773 0.0000804 0.0002646 0.0004667 0.0014488 -0.0001257 0.0000704 -0.0015323 0.0002614 -0.0002578 -0.0018258 0.0001306 -0.0021818 -0.0004957 -0.0009612 -0.0001801 0.0006589 0.0000251 -0.0005558 0.0001287 -0.0011944 -0.0002611 -0.0003025 0.0000259 0.0001544 0.0002157 -0.0002039 -0.0004949 -0.0012120 -0.0000642 -0.0001551 0.0000392 0.0000579 -0.0001992 -0.0007098 0.0000740 0.0003929
-0.0010370 -0.0025032 -0.0003217 -0.0008123 -0.0007365 0.0008069 0.0000310 -0.0005346 0.0001929 -0.0002072 0.0004462 0.0015018 -0.0001042 -0.0000863 -0.0018523 0.0003074 -0.0002697 -0.0017879 0.0000662 -0.0023335 -0.0005013 -0.0009538 -0.0002066 0.0005581 -0.0000069 -0.0005736 0.0000593 -0.0014472 -0.0002413 -0.0003541 0.0000199 0.0001478 0.0002126 -0.0001803 -0.0004673 -0.0012316 -0.0000610 -0.0001421 0.0000624 0.0000851 -0.0001550 -0.0008854 0.0001097 0.0004329
-0.0010650 -0.0024551 -0.0003002 -0.0008357 -0.0007760 0.0007256 0.0002457 -0.0010353 0.0003465 -0.0005722 0.0004115 0.0013932 -0.0001076 -0.0001642 -0.0018562 0.0003708 -0.0002457 -0.0018160 0.0001147 -0.0023455 -0.0004823 -0.0009922 -0.0002008 0.0004440 -0.0000364 -0.0005892 0.0000222 -0.0014717 -0.0002065 -0.0004160 0.0000141 0.0001294 0.0002170 -0.0001624 -0.0004424 -0.0011949 -0.0000595 -0.0001057 0.0000743 0.0001098 -0.0001646 -0.0009222 0.0001256 0.0004337
-0.0010218 -0.0024166 -0.0003332 -0.0008110 -0.0008544 0.0005767 0.0001560 -0.0013769 0.0003398 -0.0007763 0.0004194 0.0014419 -0.0000711 -0.0001895 -0.0020811 0.0003809 -0.0002594 -0.0017233 0.0000371 -0.0023859 -0.0004757 -0.0008926 -0.0002348 0.0004511 -0.0000376 -0.0005475 0.0000210 -0.0015064 -0.0002280 -0.0003158 0.0000286 0.0002198 0.0002114 0.0000423 -0.0004294 -0.0011500 -0.0000641 -0.0000071 0.0000905 0.0002351 -0.0001757 -0.0009156 0.0001444 0.0005008
-0.0010241 -0.0023906 -0.0003267 -0.0007317 -0.0009328 0.0003631 -0.0000441 -0.0015354 0.0004112 -0.0009663 0.0004157 0.0013101 -0.0001542 -0.0001785 -0.0022876 0.0004177 -0.0002576 -0.0016242 -0.0000342 -0.0023451 -0.0004673 -0.0007437 -0.0002786 0.0003582 -0.0000725 -0.0005502 -0.0000775 -0.0018611 -0.0002104 -0.0002078 0.0000493 0.0003695 0.0002116 0.0002589 -0.0004075 -0.0010312 -0.0000556 0.0001077 0.0000897 0.0003555 -0.0001914 -0.0010285 0.0001833 0.0007417
-0.0010261 -0.0022830 -0.0003364 -0.0006008 -0.0009606 0.0002089 0.0000572 -0.0015327 0.0005161 -0.0010894 0.0004180 0.0013195 -0.0001566 -0.0002105 -0.0021736 0.0004189 -0.0002399 -0.0015247 0.0000174 -0.0023168 -0.0004504 -0.0005349 -0.0002533 0.0002842 -0.0001008 -0.0005215 -0.0001525 -0.0021324 -0.0002196 -0.0000701 0.0000530 0.0006227 0.0001988 0.0003583 -0.0003767 -0.0009015 -0.0000657 0.0001143 0.0000873 0.0004299 -0.0002107 -0.0010679 0.0002040 0.0008770
-0.0010632 -0.0024421 -0.0004587 -0.0008277 -0.0010495 0.0000739 -0.0000490 -0.0016045 0.0005151 -0.0012310 0.0005120 0.0016509 -0.0001680 -0.0001095 -0.0013873 0.0000570 -0.0002132 -0.0014885 0.0001838 -0.0022856 -0.0003403 -0.0003173 -0.0001870 0.0004192 -0.0000162 -0.0004748 -0.0001524 -0.0022267 -0.0002061 -0.0000418 -0.0000071 0.0006604 0.0001615 0.0001395 -0.0003489 -0.0008056 -0.0000993 -0.0000312 0.0000960 0.0003590 -0.0002064 -0.0010153 0.0002117 0.0007598
-0.0012085 -0.0026462 -0.0005695 -0.0012414 -0.0010504 0.0000024 -0.0000654 -0.0016533 0.0005153 -0.0012580 0.0005979 0.0017232 -0.0001615 -0.0000695 -0.0005938 -0.0002662 -0.0002136 -0.0015309 0.0003399 -0.0021528 -0.0002426 -0.0002798 -0.0001332 0.0005036 0.0000585 -0.0004813 -0.0001566 -0.0023894 -0.0001583 -0.0001123 -0.0000818 0.0005094 0.0001200 -0.0001250 -0.0003454 -0.0007591 -0.0001266 -0.0001342 0.0000896 0.0002851 -0.0001927 -0.0010238 0.0002276 0.0007103
-0.0012696 -0.0028760 -0.0005709 -0.0014512 -0.0010081 -0.0001428 0.0001582 -0.0021158 0.0005351 -0.0012835 0.0004733 0.0015922 -0.0001416 -0.0001831 -0.0004629 -0.0002690 -0.0002557 -0.0015722 0.0004273 -0.0021689 -0.0002424 -0.0002581 -0.0001444 0.0004497 0.0000645 -0.0004765 -0.0001496 -0.0026847 -0.0001653 -0.0001056 -0.0001396 0.0004864 0.0000915 -0.0001132 -0.0003515 -0.0007254 -0.0001513 -0.0001326 0.0000718 0.0003599 -0.0002216 -0.0009683 0.0002262 0.0007734
-0.0012852 -0.0030871 -0.0005653 -0.0016190 -0.0009791 -0.0002231 0.0002275 -0.0023381 0.0006140 -0.0012868 0.0004505 0.0016337 -0.0001487 -0.0001070 -0.0001872 -0.0002446 -0.0003036 -0.0016469 0.0005637 -0.0022342 -0.0002298 -0.0002061 -0.0001333 0.0005567 0.0001182 -0.0004846 -0.0000484 -0.0029810 -0.0001815 -0.0000568 -0.0002395 0.0004625 0.0000659 -0.0001194 -0.0004209 -0.0007791 -0.0002004 -0.0001831 0.0000547 0.0004104 -0.0002532 -0.0008555 0.0002008 0.0007707
-0.0014536 -0.0034559 -0.0006481 -0.0019829 -0.0010429 -0.0002844 0.0001147 -0.0026821 0.0006392 -0.0012588 0.0006430 0.0020404 -0.0001455 0.0000224 -0.0000785 -0.0000587 -0.0005967 -0.0018731 0.0008145 -0.0028176 -0.0003306 -0.0003446 -0.0000393 0.0007892 0.0002852 -0.0006795 0.0003177 -0.0040556 -0.0002745 -0.0002250 -0.0003992 0.0003730 0.0000226 -0.0001668 -0.0005635 -0.0010750 -0.0003086 -0.0003114 0.0000362 0.0004548 -0.0003175 -0.0008153 0.0001513 0.0006194
-0.0021090 -0.0047887 -0.0008529 -0.0030249 -0.0016354 -0.0001311 -0.0001662 -0.0043043 0.0004353 -0.0010818 0.0009235 0.0025657 0.0000723 -0.0003301 -0.0002570 0.0001462 -0.0014806 -0.0025190 0.0012216 -0.0041522 -0.0006803 -0.0008886 -0.0000666 0.0010230 0.0004914 -0.0012928 0.0001831 -0.0060172 -0.0006541 -0.0009736 -0.0006198 -0.0000442 -0.0000265 -0.0004304 -0.0007436 -0.0016379 -0.0004172 -0.0005299 0.0000098 0.0003453 -0.0004679 -0.0010789 0.0001359 0.0004185
-0.0029209 -0.0060803 -0.0010300 -0.0042039 -0.0022475 0.0001784 -0.0001865 -0.0056074 0.0001959 -0.0008786 0.0011617 0.0031478 0.0003830 -0.0008894 -0.0003923 0.0001745 -0.0021665 -0.0030444 0.0013523 -0.0048533 -0.0009475 -0.0014164 -0.0001845 0.0012631 0.0006087 -0.0016999 -0.0003540 -0.0068909 -0.0009893 -0.0015655 -0.0007714 -0.0004632 -0.0000638 -0.0006960 -0.0008437 -0.0020275 -0.0004678 -0.0006435 -0.0000010 0.0002320 -0.0005475 -0.0012272 0.0001299 0.0002984
-0.0031331 -0.0064787 -0.0011294 -0.0045830 -0.0023715 0.0002763 -0.0000050 -0.0055900 0.0002485 -0.0008099 0.0012412 0.0035558 0.0003540 -0.0008399 -0.0004362 0.0001066 -0.0022315 -0.0031977 0.0012769 -0.0049334 -0.0009979 -0.0015281 -0.0002577 0.0014485 0.0005990 -0.0017212 -0.0004771 -0.0065278 -0.0010580 -0.0015617 -0.0008132 -0.0005472 -0.0000899 -0.0007447 -0.0008664 -0.0021002 -0.0004946 -0.0006378 0.0000011 0.0002506 -0.0005861 -0.0011733 0.0001144 0.0002936
-0.0031121 -0.0066803 -0.0011679 -0.0046683 -0.0024732 0.0004777 -0.0000731 -0.0052619 0.0004050 -0.0008154 0.0012995 0.0039342 0.0001784 -0.0005429 -0.0004830 -0.0000545 -0.0022671 -0.0034811 0.0012815 -0.0051844 -0.0010559 -0.0016324 -0.0002952 0.0016463 0.0006189 -0.0018203 -0.0007728 -0.0061398 -0.0011600 -0.0016567 -0.0008931 -0.0005704 -0.0001215 -0.0007557 -0.0008951 -0.0022243 -0.0005061 -0.0006763 -0.0000150 0.0002823 -0.0006502 -0.0013648 0.0001175 0.0003907
-0.0033762 -0.0074062 -0.0013877 -0.0052252 -0.0027272 0.0008524 -0.0002370 -0.0051420 0.0020170 -0.0018053 0.0013361 0.0045049 0.0002348 -0.0005697 -0.0006756 -0.0000610 -0.0020397 -0.0043130 0.0012860 -0.0054245 -0.0011587 -0.0019712 -0.0002092 0.0018591 0.0005834 -0.0020469 -0.0014479 -0.0061857 -0.0013252 -0.0018282 -0.0010723 -0.0007171 -0.0001507 -0.0007555 -0.0009417 -0.0024014 -0.0005251 -0.0007544 -0.0000502 0.0002814 -0.0007248 -0.0014348 0.0001254 0.0005026
-0.0037686 -0.0079137 -0.0017886 -0.0059825 -0.0029554 0.0013490 -0.0002505 -0.0049241 0.0038080 -0.0025676 0.0013778 0.0049153 0.0002003 -0.0005164 -0.0004685 -0.0003496 -0.0019634 -0.0052953 0.0011074 -0.0056210 -0.0014427 -0.0023409 0.0000739 0.0020555 0.0006947 -0.0025696 -0.0022583 -0.0070247 -0.0016841 -0.0023685 -0.0013180 -0.0011141 -0.0002064 -0.0008692 -0.0012085 -0.0031693 -0.0006309 -0.0010737 -0.0000782 0.0000759 -0.0012447 -0.0024696 0.0000602 0.0001358
-0.0047581 -0.0096988 -0.0026984 -0.0091501 -0.0044181 -0.0008389 -0.0005896 -0.0069026 0.0046383 -0.0046070 0.0016246 0.0049412 -0.0017159 -0.0017614 -0.0028825 0.0018465 -0.0038401 -0.0085958 0.0003199 -0.0027250 -0.0024304 -0.0046120 0.0023406 0.0028680 0.0032227 -0.0054769 -0.0046347 -0.0137682 -0.0029843 -0.0063586 -0.0025062 -0.0034447 -0.0004338 -0.0012836 -0.0021682 -0.0054335 -0.0009158 -0.0019627 -0.0001824 -0.0004840 -0.0027860 -0.0057144 0.0000116 -0.0003957
-0.0065137 -0.0133381 -0.0046080 -0.0150341 -0.0072552 -0.0056210 -0.0012446 -0.0095025 0.0048974 -0.0073492 0.0017588 0.0037757 -0.0039910 -0.0033772 -0.0058078 0.0036269 -0.0064386 -0.0127868 0.0001309 -0.0008017 -0.0033016 -0.0074104 0.0041336 0.0036133 0.0051958 -0.0082444 -0.0074232 -0.0220391 -0.0041472 -0.0105171 -0.0038118 -0.0058874 -0.0005806 -0.0015671 -0.0030061 -0.0072639 -0.0010767 -0.0023785 -0.0002456 -0.0008137 -0.0040099 -0.0081979 0.0000665 -0.0003499
-0.0073838 -0.0146377 -0.0059447 -0.0178499 -0.0085863 -0.0079431 -0.0013397 -0.0096568 0.0046692 -0.0077154 0.0016830 0.0025620 -0.0040371 -0.0037155 -0.0056384 0.0024132 -0.0068268 -0.0134828 0.0003743 -0.0015801 -0.0032697 -0.0078034 0.0041584 0.0037007 0.0049075 -0.0083751 -0.0073788 -0.0217632 -0.0040493 -0.0102776 -0.0038637 -0.0060106 -0.0005288 -0.0014753 -0.0029889 -0.0072526 -0.0010128 -0.0020533 -0.0002092 -0.0006845 -0.0040683 -0.0082547 0.0000969 -0.0001269
-0.0073078 -0.0141930 -0.0060378 -0.0176184 -0.0085340 -0.0079547 -0.0012219 -0.0095279 0.0047904 -0.0074953 0.0015757 0.0025416 -0.0039489 -0.0038108 -0.0056682 0.0021696 -0.0068622 -0.0133557 0.0002622 -0.0017873 -0.0032726 -0.0077660 0.0041005 0.0038690 0.0048135 -0.0082662 -0.0074017 -0.0214620 -0.0040256 -0.0099708 -0.0038596 -0.0059324 -0.0005210 -0.0013808 -0.0029507 -0.0070457 -0.0009879 -0.0018940 -0.0002137 -0.0005663 -0.0040559 -0.0081028 0.0000942 -0.0000210
-0.0073123 -0.0139333 -0.0060359 -0.0173939 -0.0084164 -0.0078555 -0.0016077 -0.0090898 0.0047701 -0.0072593 0.0015014 0.0024841 -0.0039517 -0.0037032 -0.0055720 0.0019713 -0.0068193 -0.0132253 0.0002792 -0.0021349 -0.0032907 -0.0075855 0.0040791 0.0038432 0.0047333 -0.0081896 -0.0073779 -0.0212912 -0.0039803 -0.0097493 -0.0038542 -0.0057908 -0.0005260 -0.0013240 -0.0029151 -0.0068691 -0.0009845 -0.0018412 -0.0002340 -0.0005339 -0.0039212 -0.0080202 0.0000745 -0.0000304
-0.0073028 -0.0137813 -0.0059905 -0.0172569 -0.0084131 -0.0078632 -0.0018064 -0.0089664 0.0045572 -0.0071156 0.0015046 0.0020893 -0.0039637 -0.0037196 -0.0053776 0.0019370 -0.0069401 -0.0132923 0.0001275 -0.0022183 -0.0033203 -0.0075759 0.0041714 0.0036527 0.0049695 -0.0081764 -0.0072860 -0.0213942 -0.0039383 -0.0100329 -0.0038794 -0.0058710 -0.0005715 -0.0014817 -0.0029679 -0.0068739 -0.0010270 -0.0020849 -0.0002807 -0.0007325 -0.0039208 -0.0081383 0.0000430 -0.0002284
-0.0073079 -0.0139864 -0.0060129 -0.0173475 -0.0085919 -0.0080069 -0.0019993 -0.0089784 0.0041650 -0.0071598 0.0013619 0.0016689 -0.0039754 -0.0040282 -0.0052792 0.0020424 -0.0070624 -0.0133910 0.0000070 -0.0021948 -0.0033359 -0.0077222 0.0041722 0.0035776 0.0051340 -0.0081284 -0.0073502 -0.0214230 -0.0039216 -0.0103268 -0.0038819 -0.0059925 -0.0005921 -0.0016067 -0.0030164 -0.0069581 -0.0010424 -0.0021774 -0.0002975 -0.0008224 -0.0040115 -0.0083168 0.0000523 -0.0002422
-0.0072730 -0.0138820 -0.0060857 -0.0172634 -0.0086333 -0.0079782 -0.0022087 -0.0087630 0.0040551 -0.0070912 0.0010919 0.0015176 -0.0040379 -0.0042415 -0.0053632 0.0021424 -0.0070552 -0.0132568 0.0001514 -0.0023789 -0.0033270 -0.0077433 0.0040217 0.0036291 0.0049273 -0.0080700 -0.0074036 -0.0212026 -0.0039167 -0.0099911 -0.0038481 -0.0058852 -0.0005651 -0.0015082 -0.0029631 -0.0068607 -0.0010084 -0.0019440 -0.0002844 -0.0006776 -0.0040139 -0.0083263 0.0000964 -0.0000140
-0.0070898 -0.0134800 -0.0060525 -0.0169880 -0.0084662 -0.0078123 -0.0019538 -0.0088441 0.0041286 -0.0069464 0.0010373 0.0014444 -0.0040154 -0.0042499 -0.0053552 0.0023244 -0.0070161 -0.0130027 0.0002800 -0.0024539 -0.0033067 -0.0076392 0.0039838 0.0036215 0.0047923 -0.0079477 -0.0072630 -0.0209466 -0.0039251 -0.0096088 -0.0038193 -0.0057089 -0.0005525 -0.0014076 -0.0029129 -0.0066858 -0.0009899 -0.0017804 -0.0002920 -0.0005437 -0.0040695 -0.0082580 0.0001098 0.0001548
-0.0069909 -0.0131364 -0.0059660 -0.0168484 -0.0084372 -0.0077372 -0.0017712 -0.0090730 0.0039909 -0.0068779 0.0011236 0.0014611 -0.0039594 -0.0043363 -0.0052950 0.0025670 -0.0069016 -0.0128286 0.0002557 -0.0022437 -0.0033127 -0.0074723 0.0039222 0.0037223 0.0047657 -0.0077392 -0.0071371 -0.0206295 -0.0039356 -0.0094104 -0.0038112 -0.0055086 -0.0005583 -0.0012967 -0.0028719 -0.0065277 -0.0009802 -0.0016375 -0.0002966 -0.0004216 -0.0040545 -0.0081429 0.0001071 0.0002437
-0.0069773 -0.0126204 -0.0059520 -0.0165846 -0.0083678 -0.0076216 -0.0016877 -0.0090027 0.0039060 -0.0066029 0.0011600 0.0014546 -0.0039754 -0.0043256 -0.0052499 0.0026431 -0.0068779 -0.0127357 0.0001730 -0.0020809 -0.0032811 -0.0074234 0.0038579 0.0036905 0.0047254 -0.0076532 -0.0071260 -0.0204030 -0.0039102 -0.0094574 -0.0037884 -0.0055226 -0.0005781 -0.0013519 -0.0028375 -0.0064716 -0.0009645 -0.0016048 -0.0002907 -0.0004738 -0.0040232 -0.0081068 0.0001056 0.0001495
-0.0069808 -0.0124775 -0.0059391 -0.0164350 -0.0083355 -0.0076749 -0.0021113 -0.0088219 0.0037629 -0.0066940 0.0013139 0.0013992 -0.0038321 -0.0043753 -0.0053130 0.0026219 -0.0069102 -0.0126923 0.0001871 -0.0022462 -0.0032733 -0.0073865 0.0037605 0.0035789 0.0046824 -0.0075595 -0.0070811 -0.0201039 -0.0039211 -0.0095741 -0.0037514 -0.0055777 -0.0005905 -0.0014297 -0.0027994 -0.0064638 -0.0009353 -0.0015506 -0.0002766 -0.0005308 -0.0039918 -0.0081801 0.0001004 0.0000485
-0.0068601 -0.0126066 -0.0059331 -0.0163376 -0.0083302 -0.0078002 -0.0021713 -0.0090624 0.0035687 -0.0069237 0.0014426 0.0013629 -0.0039182 -0.0043988 -0.0053628 0.0026047 -0.0068711 -0.0126367 0.0001645 -0.0023735 -0.0032529 -0.0073075 0.0036509 0.0035450 0.0046204 -0.0073929 -0.0069830 -0.0198108 -0.0039682 -0.0095113 -0.0037225 -0.0054411 -0.0005877 -0.0013726 -0.0027550 -0.0063430 -0.0009255 -0.0015037 -0.0002822 -0.0005153 -0.0038834 -0.0081488 0.0000957 0.0000685
-0.0066996 -0.0126935 -0.0059646 -0.0161282 -0.0082403 -0.0076911 -0.0018400 -0.0092186 0.0035664 -0.0067462 0.0014440 0.0011228 -0.0040282 -0.0042518 -0.0052771 0.0025007 -0.0068921 -0.0126247 0.0000998 -0.0022088 -0.0031888 -0.0072111 0.0036210 0.0034004 0.0045176 -0.0074342 -0.0070174 -0.0199051 -0.0039373 -0.0093706 -0.0037770 -0.0053703 -0.0006238 -0.0013676 -0.0027214 -0.0061607 -0.0009712 -0.0017149 -0.0003253 -0.0005916 -0.0038780 -0.0080525 0.0000763 0.0000871
-0.0066874 -0.0134898 -0.0059741 -0.0163565 -0.0082897 -0.0079269 -0.0017409 -0.0091181 0.0035808 -0.0067241 0.0014135 0.0010264 -0.0038648 -0.0042505 -0.0052258 0.0026090 -0.0071009 -0.0126532 0.0000371 -0.0019614 -0.0032314 -0.0071546 0.0035880 0.0032626 0.0045051 -0.0073947 -0.0070555 -0.0199378 -0.0039132 -0.0092464 -0.0039193 -0.0054038 -0.0006778 -0.0012949 -0.0027068 -0.0060617 -0.0009933 -0.0017353 -0.0003317 -0.0005029 -0.0039491 -0.0080885 0.0000664 0.0001410
-0.0067244 -0.0142374 -0.0059234 -0.0167123 -0.0084105 -0.0083884 -0.0016793 -0.0090362 0.0036098 -0.0067899 0.0012816 0.0013118 -0.0036373 -0.0041294 -0.0050436 0.0023474 -0.0072241 -0.0128297 0.0000492 -0.0019896 -0.0032544 -0.0072151 0.0035082 0.0031568 0.0043989 -0.0073626 -0.0070681 -0.0196653 -0.0038879 -0.0091459 -0.0039342 -0.0055283 -0.0006742 -0.0013392 -0.0026649 -0.0059875 -0.0009737 -0.0017257 -0.0003304 -0.0006508 -0.0039169 -0.0080761 0.0000636 0.0000135
-0.0068273 -0.0143270 -0.0058483 -0.0165565 -0.0083139 -0.0083643 -0.0021530 -0.0088558 0.0038127 -0.0068297 0.0010325 0.0012544 -0.0035090 -0.0039562 -0.0049015 0.0015573 -0.0071377 -0.0132370 0.0001449 -0.0024514 -0.0032522 -0.0072775 0.0033974 0.0030541 0.0042470 -0.0075302 -0.0069999 -0.0195100 -0.0038229 -0.0091702 -0.0038937 -0.0056105 -0.0006700 -0.0015087 -0.0026610 -0.0060154 -0.0009795 -0.0018777 -0.0003383 -0.0008856 -0.0038737 -0.0080271 0.0000601 -0.0001688
-0.0068262 -0.0140861 -0.0057635 -0.0163765 -0.0082158 -0.0082555 -0.0022310 -0.0089535 0.0038564 -0.0067476 0.0010201 0.0010219 -0.0035489 -0.0040968 -0.0049044 0.0013646 -0.0070567 -0.0133109 -0.0000181 -0.0026442 -0.0032887 -0.0072512 0.0033686 0.0030074 0.0043995 -0.0073395 -0.0069937 -0.0196203 -0.0038066 -0.0094736 -0.0039510 -0.0056329 -0.0007055 -0.0015280 -0.0026748 -0.0060670 -0.0009732 -0.0018615 -0.0003219 -0.0007641 -0.0039554 -0.0082599 0.0000492 -0.0001971
-0.0067306 -0.0141262 -0.0057191 -0.0165754 -0.0083606 -0.0087058 -0.0018998 -0.0092196 0.0034964 -0.0069394 0.0012559 0.0011377 -0.0035077 -0.0040589 -0.0047426 0.0014512 -0.0069971 -0.0131934 -0.0001716 -0.0026332 -0.0032837 -0.0070965 0.0033870 0.0029662 0.0045054 -0.0071227 -0.0071232 -0.0196766 -0.0038288 -0.0095974 -0.0039770 -0.0056133 -0.0007144 -0.0014651 -0.0026618 -0.0060242 -0.0009603 -0.0017720 -0.0003166 -0.0006795 -0.0039870 -0.0084061 0.0000334 -0.0001916
-0.0066217 -0.0142624 -0.0057107 -0.0164680 -0.0083236 -0.0088073 -0.0018008 -0.0092079 0.0033439 -0.0069817 0.0012185 0.0012824 -0.0033409 -0.0036921 -0.0044457 0.0011737 -0.0070290 -0.0131155 -0.0000114 -0.0029125 -0.0032372 -0.0069938 0.0033689 0.0029441 0.0043120 -0.0072129 -0.0072462 -0.0194208 -0.0038319 -0.0092108 -0.0039165 -0.0054703 -0.0006939 -0.0013964 -0.0026650 -0.0060100 -0.0009679 -0.0017434 -0.0003325 -0.0007399 -0.0039554 -0.0082604 0.0000390 -0.0001693
-0.0065790 -0.0139138 -0.0056433 -0.0160503 -0.0081859 -0.0085777 -0.0021069 -0.0089649 0.0034529 -0.0068076 0.0010796 0.0013034 -0.0031496 -0.0036780 -0.0042606 0.0008830 -0.0070674 -0.0130145 0.0000885 -0.0031751 -0.0032418 -0.0070540 0.0033355 0.0029583 0.0042354 -0.0072062 -0.0072689 -0.0191591 -0.0037918 -0.0091559 -0.0038724 -0.0055049 -0.0006926 -0.0014803 -0.0026562 -0.0060702 -0.0009459 -0.0017322 -0.0003167 -0.0008442 -0.0039283 -0.0083331 0.0000347 -0.0002601
-0.0065457 -0.0135864 -0.0055384 -0.0160235 -0.0082051 -0.0086653 -0.0023832 -0.0088979 0.0033638 -0.0070176 0.0011179 0.0013759 -0.0032661 -0.0037327 -0.0042383 0.0008784 -0.0070056 -0.0130178 0.0000638 -0.0033222 -0.0032476 -0.0070944 0.0033126 0.0030127 0.0043009 -0.0070891 -0.0071799 -0.0189258 -0.0037912 -0.0093909 -0.0038475 -0.0056201 -0.0006899 -0.0015855 -0.0026450 -0.0061827 -0.0008960 -0.0015785 -0.0002673 -0.0008472 -0.0039082 -0.0084492 0.0000319 -0.0003007
-0.0064457 -0.0131681 -0.0055003 -0.0159639 -0.0081445 -0.0086070 -0.0023629 -0.0088813 0.0032900 -0.0071242 0.0011778 0.0015370 -0.0034071 -0.0037256 -0.0041254 0.0010146 -0.0069143 -0.0129452 0.0000823 -0.0032690 -0.0031900 -0.0070176 0.0032488 0.0030398 0.0042442 -0.0069483 -0.0071238 -0.0188748 -0.0038224 -0.0092207 -0.0037825 -0.0055759 -0.0006735 -0.0015509 -0.0025872 -0.0061386 -0.0008608 -0.0014530 -0.0002535 -0.0008392 -0.0039153 -0.0083455 0.0000587 -0.0001960
-0.0064241 -0.0127800 -0.0054848 -0.0156844 -0.0079992 -0.0084660 -0.0024162 -0.0087257 0.0032433 -0.0069546 0.0011478 0.0015119 -0.0033276 -0.0038083 -0.0040185 0.0010621 -0.0068954 -0.0127487 0.0001103 -0.0031106 -0.0031742 -0.0069362 0.0031880 0.0029770 0.0041687 -0.0068312 -0.0071168 -0.0188431 -0.0038112 -0.0089156 -0.0037397 -0.0054696 -0.0006676 -0.0015118 -0.0025270 -0.0059947 -0.0008530 -0.0014407 -0.0002553 -0.0008251 -0.0038226 -0.0083335 0.0000651 -0.0001407
-0.0063783 -0.0125416 -0.0054443 -0.0155233 -0.0079159 -0.0084002 -0.0025160 -0.0084690 0.0032031 -0.0068723 0.0012019 0.0014427 -0.0032017 -0.0039669 -0.0040288 0.0010809 -0.0068557 -0.0125535 0.0000914 -0.0030727 -0.0031835 -0.0068101 0.0031673 0.0029141 0.0041662 -0.0067156 -0.0070877 -0.0186265 -0.0037930 -0.0087426 -0.0037398 -0.0053307 -0.0006777 -0.0014361 -0.0025016 -0.0059263 -0.0008472 -0.0013660 -0.0002470 -0.0007316 -0.0037337 -0.0083544 0.0000615 -0.0001200
-0.0062699 -0.0123707 -0.0054293 -0.0154013 -0.0078642 -0.0083580 -0.0024868 -0.0082867 0.0031473 -0.0067889 0.0012655 0.0014786 -0.0031911 -0.0040465 -0.0039722 0.0011311 -0.0067528 -0.0125354 0.0000502 -0.0030030 -0.0031503 -0.0067872 0.0031083 0.0028810 0.0041323 -0.0066108 -0.0070133 -0.0184821 -0.0037824 -0.0087482 -0.0037164 -0.0053742 -0.0006721 -0.0014947 -0.0024788 -0.0059768 -0.0008323 -0.0013699 -0.0002323 -0.0008550 -0.0037157 -0.0083879 0.0000753 -0.0001877
-0.0062003 -0.0122990 -0.0054136 -0.0153315 -0.0077941 -0.0083344 -0.0022677 -0.0085206 0.0030741 -0.0067492 0.0012486 0.0015159 -0.0032163 -0.0040354 -0.0038728 0.0010547 -0.0066442 -0.0126390 0.0000852 -0.0030301 -0.0031407 -0.0068172 0.0030389 0.0028224 0.0040690 -0.0065768 -0.0069590 -0.0183461 -0.0037694 -0.0088045 -0.0036780 -0.0055183 -0.0006662 -0.0016463 -0.0024450 -0.0060295 -0.0008190 -0.0014614 -0.0002197 -0.0010421 -0.0037042 -0.0083804 0.0000750 -0.0002855
-0.0062103 -0.0122877 -0.0053544 -0.0153671 -0.0077146 -0.0083867 -0.0018686 -0.0088398 0.0030925 -0.0069575 0.0012703 0.0015299 -0.0031427 -0.0041054 -0.0038362 0.0010239 -0.0065843 -0.0126376 0.0001405 -0.0030791 -0.0031436 -0.0067825 0.0030166 0.0027810 0.0040407 -0.0064930 -0.0069684 -0.0181938 -0.0037434 -0.0087709 -0.0036509 -0.0055234 -0.0006655 -0.0016766 -0.0024085 -0.0059899 -0.0008088 -0.0014933 -0.0002052 -0.0010684 -0.0036801 -0.0083185 0.0000771 -0.0002828
-0.0061723 -0.0122057 -0.0053635 -0.0152188 -0.0076640 -0.0083067 -0.0020862 -0.0084844 0.0031204 -0.0069620 0.0012479 0.0016030 -0.0031319 -0.0038964 -0.0037983 0.0010734 -0.0066360 -0.0124307 0.0001227 -0.0030064 -0.0031179 -0.0067789 0.0029583 0.0027863 0.0039914 -0.0064198 -0.0069412 -0.0180432 -0.0037072 -0.0086346 -0.0036390 -0.0054485 -0.0006664 -0.0016483 -0.0023941 -0.0059400 -0.0008138 -0.0014863 -0.0001940 -0.0010475 -0.0035880 -0.0083195 0.0000753 -0.0002382
-0.0061128 -0.0121287 -0.0053171 -0.0151430 -0.0076431 -0.0081901 -0.0023405 -0.0082390 0.0030901 -0.0068951 0.0011854 0.0017412 -0.0031234 -0.0038042 -0.0037143 0.0010928 -0.0065764 -0.0122719 0.0000814 -0.0029388 -0.0030839 -0.0066703 0.0029261 0.0027565 0.0039474 -0.0064138 -0.0068374 -0.0179876 -0.0036504 -0.0084731 -0.0036203 -0.0052921 -0.0006644 -0.0015714 -0.0023797 -0.0058837 -0.0008348 -0.0015123 -0.0001940 -0.0010128 -0.0035134 -0.0082009 0.0000503 -0.0002823
-0.0059920 -0.0123022 -0.0052533 -0.0151965 -0.0076385 -0.0081889 -0.0020564 -0.0084301 0.0030616 -0.0067311 0.0010951 0.0015185 -0.0029804 -0.0039922 -0.0036388 0.0010305 -0.0065900 -0.0123528 -0.0000883 -0.0030766 -0.0030150 -0.0066767 0.0029522 0.0026213 0.0040220 -0.0064607 -0.0066878 -0.0186391 -0.0035433 -0.0087145 -0.0036577 -0.0053537 -0.0006914 -0.0017167 -0.0024118 -0.0058816 -0.0008922 -0.0019185 -0.0002221 -0.0012571 -0.0035655 -0.0082908 0.0000047 -0.0006532
-0.0061072 -0.0129047 -0.0053100 -0.0154363 -0.0077212 -0.0085755 -0.0020530 -0.0085908 0.0029817 -0.0068944 0.0009426 0.0012051 -0.0028816 -0.0041707 -0.0036031 0.0010443 -0.0067080 -0.0124481 -0.0002753 -0.0033067 -0.0030193 -0.0068180 0.0030401 0.0024950 0.0041405 -0.0065093 -0.0066868 -0.0191946 -0.0035055 -0.0091007 -0.0037306 -0.0055749 -0.0007155 -0.0019334 -0.0024492 -0.0059796 -0.0009150 -0.0022211 -0.0002270 -0.0015178 -0.0036476 -0.0085409 -0.0000061 -0.0008982
-0.0063468 -0.0132078 -0.0052424 -0.0157018 -0.0077755 -0.0088351 -0.0020141 -0.0088624 0.0028236 -0.0071503 0.0008637 0.0010798 -0.0030873 -0.0042751 -0.0036546 0.0011200 -0.0066603 -0.0125119 -0.0002571 -0.0033946 -0.0030483 -0.0069026 0.0030055 0.0024331 0.0041323 -0.0065972 -0.0068388 -0.0191725 -0.0035234 -0.0091062 -0.0037222 -0.0056154 -0.0006976 -0.0019667 -0.0024388 -0.0060182 -0.0008976 -0.0021994 -0.0002041 -0.0015340 -0.0036187 -0.0086301 0.0000234 -0.0008015
-0.0062442 -0.0131231 -0.0052037 -0.0155773 -0.0077454 -0.0087512 -0.0018788 -0.0090036 0.0027885 -0.0070252 0.0008463 0.0009524 -0.0030681 -0.0044237 -0.0036985 0.0010052 -0.0065956 -0.0125096 -0.0002387 -0.0034369 -0.0030130 -0.0069342 0.0028870 0.0023748 0.0040705 -0.0066929 -0.0068723 -0.0192002 -0.0034814 -0.0089625 -0.0036836 -0.0055702 -0.0006990 -0.0019520 -0.0024156 -0.0059694 -0.0008922 -0.0022263 -0.0002037 -0.0014794 -0.0035793 -0.0086947 0.0000459 -0.0006511
-0.0061585 -0.0131218 -0.0052137 -0.0154341 -0.0076662 -0.0087825 -0.0021629 -0.0087365 0.0027543 -0.0068723 0.0008303 0.0009113 -0.0029802 -0.0045428 -0.0036843 0.0010154 -0.0065910 -0.0123283 -0.0002547 -0.0033646 -0.0029602 -0.0068992 0.0028481 0.0022978 0.0040086 -0.0066348 -0.0068521 -0.0191343 -0.0034721 -0.0088012 -0.0036660 -0.0054481 -0.0007042 -0.0018683 -0.0023952 -0.0059125 -0.0008877 -0.0021394 -0.0002055 -0.0013504 -0.0035953 -0.0085578 0.0000643 -0.0004699
-0.0061312 -0.0129819 -0.0051537 -0.0153074 -0.0075658 -0.0087688 -0.0025160 -0.0083291 0.0027767 -0.0068955 0.0008932 0.0009461 -0.0030214 -0.0043988 -0.0036619 0.0010805 -0.0065373 -0.0122747 -0.0002517 -0.0032850 -0.0029641 -0.0068485 0.0028000 0.0022377 0.0039485 -0.0065355 -0.0068474 -0.0189432 -0.0034706 -0.0087321 -0.0036639 -0.0053974 -0.0007031 -0.0018712 -0.0023762 -0.0059077 -0.0008833 -0.0020630 -0.0001886 -0.0013845 -0.0035565 -0.0084927 0.0000716 -0.0004824
-0.0061299 -0.0127267 -0.0050616 -0.0152537 -0.0074875 -0.0087480 -0.0021847 -0.0083580 0.0028112 -0.0069376 0.0009324 0.0011090 -0.0029307 -0.0042387 -0.0036101 0.0010570 -0.0064999 -0.0122328 -0.0002727 -0.0032506 -0.0029789 -0.0068804 0.0027599 0.0022639 0.0039350 -0.0064628 -0.0067832 -0.0186858 -0.0034424 -0.0087820 -0.0036495 -0.0054621 -0.0007047 -0.0019559 -0.0023429 -0.0058634 -0.0008588 -0.0020508 -0.0001718 -0.0015066 -0.0034931 -0.0086075 0.0000845 -0.0005353
-0.0061621 -0.0124864 -0.0050580 -0.0151678 -0.0074130 -0.0087148 -0.0020772 -0.0083108 0.0027495 -0.0068541 0.0009541 0.0011935 -0.0030899 -0.0042142 -0.0035641 0.0010956 -0.0063946 -0.0121354 -0.0002199 -0.0031930 -0.0029411 -0.0069211 0.0027031 0.0022714 0.0039259 -0.0063639 -0.0066793 -0.0185843 -0.0034402 -0.0087451 -0.0036343 -0.0054474 -0.0007025 -0.0019602 -0.0022792 -0.0057580 -0.0008364 -0.0019949 -0.0001677 -0.0014864 -0.0034461 -0.0086853 0.0001019 -0.0004212
-0.0060472 -0.0123019 -0.0050944 -0.0149787 -0.0073534 -0.0085786 -0.0021578 -0.0081769 0.0026750 -0.0067384 0.0009237 0.0012661 -0.0032023 -0.0042237 -0.0035439 0.0011720 -0.0063270 -0.0120498 -0.0001157 -0.0031538 -0.0029621 -0.0068475 0.0026413 0.0022364 0.0038963 -0.0062593 -0.0066812 -0.0184254 -0.0034215 -0.0085884 -0.0036227 -0.0053436 -0.0006991 -0.0018921 -0.0022327 -0.0056734 -0.0008279 -0.0019175 -0.0001694 -0.0014113 -0.0034314 -0.0085887 0.0001133 -0.0003064
-0.0059369 -0.0120796 -0.0050316 -0.0148492 -0.0073052 -0.0083585 -0.0019851 -0.0081299 0.0026604 -0.0065880 0.0009003 0.0013877 -0.0030299 -0.0041332 -0.0034934 0.0012183 -0.0063576 -0.0118531 -0.0001452 -0.0030628 -0.0029768 -0.0067717 0.0026037 0.0022648 0.0038859 -0.0061616 -0.0066877 -0.0181828 -0.0033900 -0.0084389 -0.0035900 -0.0052154 -0.0007020 -0.0017849 -0.0022305 -0.0056074 -0.0008266 -0.0018215 -0.0001701 -0.0013070 -0.0034171 -0.0083877 0.0001117 -0.0002259
-0.0059907 -0.0117683 -0.0049923 -0.0146511 -0.0072607 -0.0082183 -0.0019381 -0.0079275 0.0026716 -0.0064533 0.0009564 0.0013695 -0.0028919 -0.0040633 -0.0034020 0.0012329 -0.0062825 -0.0117822 -0.0002078 -0.0029459 -0.0028783 -0.0067796 0.0026011 0.0022673 0.0038619 -0.0060616 -0.0065784 -0.0179956 -0.0033645 -0.0083213 -0.0035625 -0.0051432 -0.0007014 -0.0017316 -0.0022295 -0.0055870 -0.0008214 -0.0017626 -0.0001660 -0.0013029 -0.0033635 -0.0083777 0.0001075 -0.0002271
-0.0059867 -0.0115825 -0.0049499 -0.0145415 -0.0071933 -0.0081892 -0.0019629 -0.0078256 0.0025911 -0.0063449 0.0009477 0.0014036 -0.0028835 -0.0040703 -0.0033921 0.0012479 -0.0062332 -0.0117326 -0.0002104 -0.0028721 -0.0028780 -0.0067633 0.0025981 0.0022347 0.0038447 -0.0059667 -0.0065037 -0.0178375 -0.0033347 -0.0083231 -0.0035548 -0.0051535 -0.0007006 -0.0017747 -0.0021992 -0.0055319 -0.0008230 -0.0018130 -0.0001681 -0.0014154 -0.0033467 -0.0083739 0.0000942 -0.0003622
-0.0059286 -0.0115485 -0.0049043 -0.0145548 -0.0071604 -0.0080930 -0.0020425 -0.0077721 0.0025650 -0.0062580 0.0009475 0.0014610 -0.0028230 -0.0039252 -0.0033129 0.0012469 -0.0061641 -0.0116755 -0.0002150 -0.0027718 -0.0029021 -0.0067207 0.0026017 0.0022723 0.0038776 -0.0059023 -0.0064800 -0.0178235 -0.0033008 -0.0083762 -0.0035516 -0.0051226 -0.0007069 -0.0018082 -0.0021472 -0.0054150 -0.0008293 -0.0018760 -0.0001806 -0.0014465 -0.0033328 -0.0083449 0.0000667 -0.0004408
-0.0058478 -0.0114577 -0.0049361 -0.0144895 -0.0071678 -0.0080305 -0.0021628 -0.0076571 0.0025559 -0.0061638 0.0010669 0.0014633 -0.0027990 -0.0038259 -0.0032316 0.0012821 -0.0060818 -0.0115037 -0.0001831 -0.0026884 -0.0028601 -0.0066272 0.0026077 0.0023584 0.0038895 -0.0057455 -0.0063487 -0.0177380 -0.0032977 -0.0082336 -0.0035378 -0.0050089 -0.0007063 -0.0016927 -0.0020831 -0.0052697 -0.0008133 -0.0017834 -0.0001874 -0.0013566 -0.0033049 -0.0082110 0.0000817 -0.0002809
-0.0057400 -0.0111050 -0.0049645 -0.0142844 -0.0071041 -0.0079478 -0.0018189 -0.0076178 0.0023459 -0.0058812 0.0011216 0.0015795 -0.0027586 -0.0037832 -0.0032267 0.0014484 -0.0060477 -0.0112644 -0.0001436 -0.0025038 -0.0028718 -0.0064987 0.0026031 0.0024840 0.0038506 -0.0056038 -0.0062857 -0.0174035 -0.0032811 -0.0079743 -0.0035286 -0.0048613 -0.0007085 -0.0015421 -0.0020268 -0.0051252 -0.0008005 -0.0016490 -0.0001977 -0.0012540 -0.0033332 -0.0080009 0.0001059 -0.0000719
-0.0057032 -0.0108634 -0.0049215 -0.0140872 -0.0070257 -0.0078240 -0.0017230 -0.0074137 0.0021600 -0.0056079 0.0011212 0.0016190 -0.0026631 -0.0037685 -0.0031963 0.0015441 -0.0059830 -0.0111792 -0.0000881 -0.0023647 -0.0028744 -0.0064389 0.0025728 0.0025695 0.0038282 -0.0055691 -0.0063071 -0.0171401 -0.0032709 -0.0078175 -0.0035338 -0.0047607 -0.0007268 -0.0014912 -0.0020194 -0.0050731 -0.0008033 -0.0016116 -0.0002093 -0.0012455 -0.0033141 -0.0080097 0.0001055 -0.0000604
-0.0056859 -0.0108226 -0.0048798 -0.0140305 -0.0069803 -0.0078174 -0.0018117 -0.0074338 0.0021193 -0.0056077 0.0011018 0.0016661 -0.0028317 -0.0036328 -0.0031726 0.0015315 -0.0059407 -0.0111246 -0.0000455 -0.0023994 -0.0028621 -0.0064630 0.0025592 0.0025287 0.0038199 -0.0055121 -0.0062863 -0.0169812 -0.0032814 -0.0078861 -0.0035193 -0.0048270 -0.0007358 -0.0015531 -0.0020204 -0.0050949 -0.0008025 -0.0016285 -0.0002075 -0.0013568 -0.0032739 -0.0080489 0.0001074 -0.0001483
-0.0056596 -0.0106857 -0.0048273 -0.0140176 -0.0069072 -0.0078145 -0.0017268 -0.0074522 0.0021047 -0.0056661 0.0010812 0.0016604 -0.0029586 -0.0034591 -0.0031646 0.0015598 -0.0059145 -0.0110761 -0.0000302 -0.0023981 -0.0028354 -0.0064941 0.0025477 0.0024428 0.0037884 -0.0054731 -0.0062687 -0.0168745 -0.0032596 -0.0079629 -0.0035029 -0.0048980 -0.0007330 -0.0016124 -0.0020082 -0.0051010 -0.0008010 -0.0016239 -0.0002019 -0.0014129 -0.0032862 -0.0079653 0.0001081 -0.0001705
-0.0056212 -0.0105670 -0.0048160 -0.0139246 -0.0068589 -0.0077087 -0.0018235 -0.0073100 0.0021551 -0.0057124 0.0011013 0.0015529 -0.0027694 -0.0035878 -0.0031329 0.0015504 -0.0059414 -0.0109851 0.0000216 -0.0023957 -0.0028384 -0.0064114 0.0025158 0.0023996 0.0037633 -0.0054302 -0.0061964 -0.0167892 -0.0032533 -0.0078618 -0.0035009 -0.0048216 -0.0007346 -0.0015448 -0.0019852 -0.0050261 -0.0007954 -0.0015536 -0.0001970 -0.0013346 -0.0032491 -0.0079021 0.0001087 -0.0001008
-0.0055430 -0.0105140 -0.0048223 -0.0137821 -0.0068139 -0.0075669 -0.0019165 -0.0071551 0.0021274 -0.0056515 0.0010532 0.0016334 -0.0026316 -0.0037056 -0.0031092 0.0016122 -0.0059369 -0.0108785 0.0000436 -0.0023307 -0.0028534 -0.0062814 0.0025286 0.0023937 0.0037276 -0.0053470 -0.0061415 -0.0166535 -0.0032636 -0.0076760 -0.0034921 -0.0046811 -0.0007383 -0.0014174 -0.0019585 -0.0049152 -0.0007912 -0.0014562 -0.0002075 -0.0012110 -0.0032153 -0.0078246 0.0001006 0.0000213
-0.0055546 -0.0103616 -0.0048011 -0.0136090 -0.0067794 -0.0074977 -0.0018184 -0.0070669 0.0020621 -0.0055311 0.0010190 0.0017278 -0.0026257 -0.0036016 -0.0030979 0.0016591 -0.0058324 -0.0108867 0.0000151 -0.0022922 -0.0028307 -0.0062044 0.0024987 0.0023900 0.0036714 -0.0052759 -0.0061566 -0.0164850 -0.0032622 -0.0075290 -0.0034822 -0.0045903 -0.0007446 -0.0013449 -0.0019420 -0.0048442 -0.0007978 -0.0014023 -0.0002145 -0.0011948 -0.0032328 -0.0076928 0.0000983 0.0000206
-0.0054300 -0.0103105 -0.0048080 -0.0134805 -0.0067831 -0.0074179 -0.0018514 -0.0070169 0.0020253 -0.0054391 0.0011016 0.0016047 -0.0025438 -0.0035873 -0.0030646 0.0016322 -0.0057638 -0.0108806 -0.0000065 -0.0022591 -0.0028051 -0.0062289 0.0024397 0.0023540 0.0036541 -0.0052595 -0.0060961 -0.0164090 -0.0032063 -0.0076389 -0.0034639 -0.0046613 -0.0007497 -0.0014202 -0.0019094 -0.0048140 -0.0007986 -0.0014494 -0.0002124 -0.0013219 -0.0031974 -0.0076776 0.0001027 -0.0001047
-0.0053440 -0.0102954 -0.0047576 -0.0134678 -0.0067168 -0.0073345 -0.0019793 -0.0069450 0.0020195 -0.0053713 0.0010902 0.0015281 -0.0026472 -0.0034782 -0.0030056 0.0015885 -0.0057228 -0.0108189 -0.0000350 -0.0021515 -0.0027844 -0.0062318 0.0024273 0.0023034 0.0036717 -0.0052708 -0.0059756 -0.0165100 -0.0031533 -0.0076889 -0.0034432 -0.0046862 -0.0007542 -0.0015271 -0.0018832 -0.0046602 -0.0008547 -0.0017675 -0.0002470 -0.0015214 -0.0032140 -0.0077177 0.0000537 -0.0003969
-0.0055866 -0.0108854 -0.0048131 -0.0137185 -0.0068727 -0.0079301 -0.0016195 -0.0072862 0.0018212 -0.0055070 0.0009904 0.0013541 -0.0025035 -0.0033959 -0.0031912 0.0015000 -0.0059043 -0.0112594 -0.0002385 -0.0025730 -0.0028258 -0.0063585 0.0024978 0.0021691 0.0039307 -0.0053212 -0.0062240 -0.0173748 -0.0032465 -0.0081180 -0.0035844 -0.0048394 -0.0008016 -0.0015881 -0.0019939 -0.0047276 -0.0009410 -0.0020984 -0.0002873 -0.0015999 -0.0034969 -0.0081088 0.0000051 -0.0006204
-0.0056699 -0.0116386 -0.0049864 -0.0140485 -0.0070924 -0.0082340 -0.0011719 -0.0071071 0.0015207 -0.0050008 0.0006597 0.0010515 -0.0021689 -0.0030735 -0.0032949 0.0009877 -0.0061239 -0.0117883 -0.0004194 -0.0028804 -0.0028231 -0.0066016 0.0025900 0.0021262 0.0041023 -0.0055214 -0.0065082 -0.0182542 -0.0032521 -0.0084728 -0.0037834 -0.0050412 -0.0008498 -0.0015827 -0.0021121 -0.0049061 -0.0009715 -0.0021813 -0.0003176 -0.0014929 -0.0037346 -0.0086087 0.0000217 -0.0005029
-0.0058154 -0.0122836 -0.0051455 -0.0144113 -0.0072347 -0.0086165 -0.0011684 -0.0071562 0.0012696 -0.0048259 0.0004488 0.0010229 -0.0020603 -0.0030222 -0.0033553 0.0005963 -0.0061088 -0.0118706 -0.0003116 -0.0028291 -0.0028111 -0.0066195 0.0026484 0.0022713 0.0040976 -0.0055342 -0.0064394 -0.0181944 -0.0032047 -0.0083329 -0.0038126 -0.0050530 -0.0008443 -0.0015336 -0.0020988 -0.0048546 -0.0009741 -0.0021515 -0.0003433 -0.0015948 -0.0037738 -0.0086001 0.0000737 -0.0003614
-0.0058632 -0.0124835 -0.0052312 -0.0145632 -0.0071522 -0.0092050 -0.0015179 -0.0074542 0.0011097 -0.0051714 0.0004004 0.0011835 -0.0021684 -0.0035600 -0.0037163 0.0003016 -0.0061310 -0.0119893 -0.0002309 -0.0031599 -0.0028868 -0.0067819 0.0025576 0.0022667 0.0041418 -0.0054546 -0.0064185 -0.0179327 -0.0032666 -0.0084953 -0.0038358 -0.0052075 -0.0008518 -0.0015628 -0.0020686 -0.0049051 -0.0009318 -0.0019161 -0.0003078 -0.0016829 -0.0038174 -0.0086364 0.0001166 -0.0003169
-0.0056461 -0.0117841 -0.0051891 -0.0145024 -0.0069290 -0.0088963 -0.0017098 -0.0071697 0.0011366 -0.0049243 0.0003397 0.0012117 -0.0022450 -0.0034373 -0.0036825 0.0001294 -0.0060344 -0.0122038 -0.0001487 -0.0031188 -0.0028900 -0.0069464 0.0024177 0.0021619 0.0038949 -0.0055867 -0.0063611 -0.0176760 -0.0032143 -0.0084801 -0.0038442 -0.0053409 -0.0008582 -0.0016201 -0.0020355 -0.0049223 -0.0008949 -0.0017686 -0.0002798 -0.0016130 -0.0037840 -0.0087768 0.0001291 -0.0003016
-0.0056736 -0.0115627 -0.0052126 -0.0146492 -0.0069157 -0.0090067 -0.0018983 -0.0071811 0.0009069 -0.0050829 0.0005157 0.0011932 -0.0021653 -0.0033831 -0.0035462 0.0003679 -0.0058351 -0.0121999 -0.0000581 -0.0029205 -0.0028303 -0.0068693 0.0023586 0.0021681 0.0037196 -0.0055387 -0.0062574 -0.0174153 -0.0031954 -0.0082661 -0.0038109 -0.0052788 -0.0008431 -0.0015635 -0.0020057 -0.0048286 -0.0009010 -0.0017223 -0.0002897 -0.0015632 -0.0037235 -0.0086345 0.0001347 -0.0001724
-0.0056791 -0.0113153 -0.0052038 -0.0145476 -0.0068653 -0.0089571 -0.0021312 -0.0070451 0.0008409 -0.0051010 0.0005112 0.0013091 -0.0021623 -0.0035107 -0.0036052 0.0003749 -0.0057423 -0.0120624 -0.0001375 -0.0028414 -0.0028132 -0.0068324 0.0022987 0.0021554 0.0037438 -0.0054082 -0.0062076 -0.0172225 -0.0032279 -0.0080997 -0.0038198 -0.0051368 -0.0008559 -0.0014248 -0.0019998 -0.0047646 -0.0008983 -0.0015554 -0.0002839 -0.0013801 -0.0036909 -0.0084868 0.0001339 -0.0000002
-0.0056394 -0.0109069 -0.0051600 -0.0142624 -0.0067653 -0.0087861 -0.0020951 -0.0068280 0.0009101 -0.0048916 0.0005022 0.0013891 -0.0022029 -0.0034379 -0.0036102 0.0003631 -0.0057111 -0.0120182 -0.0001744 -0.0027814 -0.0028275 -0.0067409 0.0022462 0.0021782 0.0037263 -0.0053706 -0.0061592 -0.0170814 -0.0032074 -0.0079071 -0.0038155 -0.0049738 -0.0008670 -0.0012917 -0.0020110 -0.0047635 -0.0009054 -0.0014198 -0.0002904 -0.0012369 -0.0036690 -0.0084337 0.0001244 0.0000222
-0.0056785 -0.0108273 -0.0051026 -0.0141520 -0.0067623 -0.0087596 -0.0020242 -0.0068727 0.0008729 -0.0049356 0.0005881 0.0012768 -0.0022046 -0.0035024 -0.0035858 0.0002120 -0.0057251 -0.0120135 -0.0002079 -0.0027947 -0.0028269 -0.0067300 0.0022004 0.0021673 0.0037068 -0.0053576 -0.0061196 -0.0170109 -0.0031786 -0.0079181 -0.0037763 -0.0050260 -0.0008657 -0.0013575 -0.0020242 -0.0047904 -0.0009079 -0.0014559 -0.0002844 -0.0013663 -0.0037097 -0.0083783 0.0001145 -0.0001373
-0.0055703 -0.0109821 -0.0050032 -0.0142231 -0.0067176 -0.0087799 -0.0018644 -0.0070140 0.0008791 -0.0050362 0.0005565 0.0011932 -0.0021630 -0.0036493 -0.0035524 0.0000188 -0.0056859 -0.0121182 -0.0002825 -0.0027539 -0.0028429 -0.0067704 0.0021711 0.0020837 0.0036556 -0.0053635 -0.0060258 -0.0170412 -0.0031703 -0.0080428 -0.0037516 -0.0051611 -0.0008630 -0.0014959 -0.0020211 -0.0048039 -0.0008944 -0.0015032 -0.0002666 -0.0014799 -0.0037391 -0.0083760 0.0001220 -0.0002096
-0.0055071 -0.0109352 -0.0049917 -0.0141985 -0.0066300 -0.0087927 -0.0018370 -0.0070507 0.0008260 -0.0050228 0.0005154 0.0012465 -0.0021374 -0.0037232 -0.0035173 0.0000187 -0.0056296 -0.0121008 -0.0002652 -0.0027090 -0.0028438 -0.0067516 0.0021508 0.0020691 0.0036082 -0.0053237 -0.0059856 -0.0169504 -0.0031489 -0.0079893 -0.0037345 -0.0050962 -0.0008514 -0.0014582 -0.0019897 -0.0047743 -0.0008896 -0.0014518 -0.0002645 -0.0014025 -0.0037163 -0.0082979 0.0001255 -0.0001075
-0.0055279 -0.0106306 -0.0049930 -0.0139848 -0.0066274 -0.0085487 -0.0018734 -0.0070484 0.0007973 -0.0048659 0.0004200 0.0011954 -0.0023015 -0.0034819 -0.0034693 0.0000531 -0.0056489 -0.0118451 -0.0002093 -0.0026797 -0.0028750 -0.0066533 0.0021289 0.0020435 0.0035412 -0.0052531 -0.0059636 -0.0168089 -0.0030957 -0.0078122 -0.0037030 -0.0049460 -0.0008395 -0.0013422 -0.0019521 -0.0046349 -0.0008922 -0.0013922 -0.0002733 -0.0013044 -0.0036571 -0.0081465 0.0001242 -0.0000090
-0.0054426 -0.0102343 -0.0049298 -0.0137505 -0.0065891 -0.0083535 -0.0020127 -0.0068501 0.0008782 -0.0046700 0.0004193 0.0012019 -0.0024064 -0.0032665 -0.0033824 0.0001536 -0.0055914 -0.0117960 -0.0000867 -0.0027016 -0.0028637 -0.0065309 0.0021204 0.0020825 0.0035162 -0.0051726 -0.0059056 -0.0166456 -0.0030660 -0.0076493 -0.0036738 -0.0047738 -0.0008265 -0.0012142 -0.0019432 -0.0045317 -0.0008916 -0.0012870 -0.0002898 -0.0011722 -0.0036477 -0.0080464 0.0001246 0.0000923
-0.0052748 -0.0098716 -0.0048623 -0.0134975 -0.0065732 -0.0082037 -0.0021600 -0.0065793 0.0009154 -0.0044812 0.0004886 0.0012504 -0.0021676 -0.0033934 -0.0033646 0.0002368 -0.0056244 -0.0117061 -0.0000570 -0.0026813 -0.0028122 -0.0064452 0.0021052 0.0021383 0.0035322 -0.0050734 -0.0058707 -0.0164775 -0.0030712 -0.0075256 -0.0036382 -0.0046926 -0.0008222 -0.0011465 -0.0019493 -0.0045397 -0.0008792 -0.0012029 -0.0002944 -0.0011359 -0.0036787 -0.0080178 0.0001134 0.0000850
-0.0051838 -0.0096914 -0.0048444 -0.0133465 -0.0065119 -0.0082391 -0.0020898 -0.0066735 0.0007215 -0.0045491 0.0005313 0.0012484 -0.0021054 -0.0035461 -0.0033717 0.0001320 -0.0056884 -0.0115573 -0.0001330 -0.0026518 -0.0028098 -0.0064139 0.0020580 0.0021052 0.0035304 -0.0050271 -0.0058640 -0.0163578 -0.0030912 -0.0075801 -0.0036046 -0.0047633 -0.0008170 -0.0011856 -0.0019467 -0.0045695 -0.0008617 -0.0011979 -0.0002845 -0.0012274 -0.0037120 -0.0080208 0.0001149 -0.0000345
-0.0051875 -0.0094083 -0.0048102 -0.0132629 -0.0064417 -0.0082576 -0.0020821 -0.0067662 0.0006049 -0.0046723 0.0005614 0.0012501 -0.0021021 -0.0036398 -0.0033453 0.0000806 -0.0056193 -0.0115216 -0.0001670 -0.0025681 -0.0027724 -0.0064459 0.0019963 0.0020420 0.0034902 -0.0050348 -0.0058249 -0.0162987 -0.0030751 -0.0076753 -0.0035757 -0.0047848 -0.0008113 -0.0011840 -0.0019292 -0.0045687 -0.0008442 -0.0011428 -0.0002722 -0.0012189 -0.0036952 -0.0080203 0.0001195 -0.0000399
-0.0051921 -0.0089142 -0.0047673 -0.0130938 -0.0064515 -0.0080938 -0.0020032 -0.0068003 0.0006246 -0.0046505 0.0005161 0.0012791 -0.0021513 -0.0036391 -0.0033718 0.0001501 -0.0055346 -0.0114442 -0.0001865 -0.0024788 -0.0027389 -0.0063931 0.0019603 0.0019636 0.0034365 -0.0050170 -0.0057471 -0.0162649 -0.0030745 -0.0075835 -0.0035453 -0.0046880 -0.0008101 -0.0010711 -0.0019166 -0.0045107 -0.0008368 -0.0010312 -0.0002689 -0.0010789 -0.0036369 -0.0079320 0.0001167 0.0000729
-0.0051322 -0.0085756 -0.0047625 -0.0129190 -0.0063497 -0.0080614 -0.0019467 -0.0068235 0.0005756 -0.0045290 0.0005348 0.0012908 -0.0022519 -0.0035141 -0.0033482 0.0001930 -0.0055110 -0.0113218 -0.0002099 -0.0024186 -0.0027425 -0.0062189 0.0019442 0.0019233 0.0033987 -0.0049451 -0.0057559 -0.0161091 -0.0030772 -0.0074222 -0.0035216 -0.0045415 -0.0008115 -0.0009129 -0.0019062 -0.0044244 -0.0008399 -0.0009122 -0.0002727 -0.0009253 -0.0035949 -0.0078251 0.0001175 0.0002000
-0.0050114 -0.0084519 -0.0047331 -0.0128049 -0.0062179 -0.0080990 -0.0019462 -0.0068393 0.0005447 -0.0044478 0.0005701 0.0013433 -0.0022141 -0.0034348 -0.0033319 0.0002307 -0.0055704 -0.0111239 -0.0002212 -0.0023629 -0.0027232 -0.0060576 0.0019013 0.0019454 0.0033650 -0.0048708 -0.0057501 -0.0159368 -0.0030522 -0.0072201 -0.0035149 -0.0043405 -0.0008270 -0.0007150 -0.0018862 -0.0043066 -0.0008384 -0.0007638 -0.0002803 -0.0007554 -0.0036000 -0.0077061 0.0001086 0.0003257
-0.0049466 -0.0083439 -0.0046615 -0.0126759 -0.0061966 -0.0080519 -0.0018124 -0.0068367 0.0005461 -0.0044711 0.0006094 0.0013716 -0.0020352 -0.0034314 -0.0032983 0.0002419 -0.0055549 -0.0110666 -0.0002254 -0.0023082 -0.0027356 -0.0059948 0.0018330 0.0019423 0.0033220 -0.0048275 -0.0057187 -0.0158359 -0.0030390 -0.0071914 -0.0035102 -0.0043379 -0.0008434 -0.0007083 -0.0018718 -0.0042324 -0.0008296 -0.0007732 -0.0002786 -0.0008114 -0.0035620 -0.0076449 0.0001038 0.0002634
-0.0049239 -0.0082384 -0.0046145 -0.0126093 -0.0061829 -0.0079362 -0.0019553 -0.0067957 0.0005022 -0.0044060 0.0005360 0.0012356 -0.0019617 -0.0034882 -0.0032427 0.0002163 -0.0054743 -0.0111074 -0.0002212 -0.0022314 -0.0027523 -0.0060123 0.0018024 0.0018272 0.0032678 -0.0048390 -0.0057451 -0.0157635 -0.0030256 -0.0073013 -0.0034859 -0.0044765 -0.0008488 -0.0008435 -0.0018516 -0.0042139 -0.0008246 -0.0008995 -0.0002709 -0.0010088 -0.0035130 -0.0076787 0.0001019 0.0001203
-0.0048567 -0.0080235 -0.0045842 -0.0125418 -0.0061698 -0.0077414 -0.0020408 -0.0069014 0.0005016 -0.0043417 0.0004481 0.0011765 -0.0020424 -0.0035624 -0.0032023 0.0003035 -0.0054384 -0.0110235 -0.0001626 -0.0021764 -0.0027697 -0.0059759 0.0017914 0.0017728 0.0032603 -0.0048277 -0.0056772 -0.0157295 -0.0030218 -0.0072911 -0.0034483 -0.0044802 -0.0008487 -0.0008341 -0.0018417 -0.0042070 -0.0008258 -0.0008871 -0.0002701 -0.0009872 -0.0035818 -0.0076470 0.0000886 0.0001440
-0.0047653 -0.0075460 -0.0045152 -0.0123547 -0.0061560 -0.0075373 -0.0018550 -0.0068624 0.0005792 -0.0043007 0.0004419 0.0012643 -0.0020798 -0.0034978 -0.0031427 0.0003846 -0.0054597 -0.0108732 -0.0001219 -0.0021341 -0.0027458 -0.0059043 0.0017699 0.0017985 0.0032592 -0.0047270 -0.0055898 -0.0156778 -0.0030138 -0.0071613 -0.0034169 -0.0043700 -0.0008559 -0.0007055 -0.0018427 -0.0041734 -0.0008236 -0.0007801 -0.0002761 -0.0008428 -0.0035974 -0.0075466 0.0000843 0.0002114
-0.0046962 -0.0070798 -0.0044354 -0.0121403 -0.0060669 -0.0074765 -0.0018991 -0.0067774 0.0005805 -0.0041504 0.0004875 0.0011687 -0.0019934 -0.0035110 -0.0031258 0.0003973 -0.0054190 -0.0107941 -0.0001432 -0.0020538 -0.0026996 -0.0058209 0.0017364 0.0017220 0.0032232 -0.0046738 -0.0055868 -0.0155668 -0.0029929 -0.0070262 -0.0033915 -0.0042283 -0.0008769 -0.0005523 -0.0018335 -0.0041253 -0.0008252 -0.0006798 -0.0002858 -0.0007181 -0.0034915 -0.0075009 0.0000790 0.0002886
-0.0047066 -0.0067385 -0.0043865 -0.0119468 -0.0060054 -0.0074681 -0.0021176 -0.0066917 0.0004763 -0.0040861 0.0005304 0.0010792 -0.0019334 -0.0035974 -0.0031721 0.0004270 -0.0053108 -0.0107595 -0.0001493 -0.0020320 -0.0027036 -0.0056833 0.0016757 0.0016691 0.0032050 -0.0046453 -0.0055714 -0.0154486 -0.0029829 -0.0069027 -0.0033653 -0.0040982 -0.0008947 -0.0004171 -0.0018309 -0.0040909 -0.0008298 -0.0006254 -0.0002891 -0.0006616 -0.0034138 -0.0074731 0.0000699 0.0003017
-0.0046269 -0.0065902 -0.0044107 -0.0118016 -0.0060160 -0.0073201 -0.0020345 -0.0067272 0.0004214 -0.0040552 0.0004766 0.0011304 -0.0020611 -0.0034696 -0.0031962 0.0003977 -0.0052353 -0.0107651 -0.0001318 -0.0020904 -0.0026954 -0.0056721 0.0016418 0.0016280 0.0031785 -0.0046445 -0.0056015 -0.0153742 -0.0029793 -0.0069447 -0.0033462 -0.0041591 -0.0009072 -0.0004969 -0.0018424 -0.0041153 -0.0008268 -0.0007071 -0.0002752 -0.0007835 -0.0033853 -0.0074894 0.0000597 0.0001478
-0.0046604 -0.0066051 -0.0044622 -0.0117542 -0.0059753 -0.0073573 -0.0018448 -0.0070415 0.0003277 -0.0041391 0.0004706 0.0010562 -0.0021299 -0.0034741 -0.0031613 0.0001962 -0.0052195 -0.0107646 -0.0001435 -0.0021784 -0.0026839 -0.0057186 0.0016231 0.0015517 0.0031584 -0.0047177 -0.0056228 -0.0153559 -0.0029472 -0.0070923 -0.0033106 -0.0042901 -0.0009142 -0.0006429 -0.0018461 -0.0041824 -0.0008249 -0.0008257 -0.0002667 -0.0009016 -0.0034325 -0.0075077 0.0000404 -0.0000062
-0.0047772 -0.0066435 -0.0044067 -0.0118640 -0.0059293 -0.0075300 -0.0020706 -0.0070330 0.0002057 -0.0042663 0.0004985 0.0008695 -0.0019483 -0.0036041 -0.0031849 0.0000849 -0.0052730 -0.0106874 -0.0001293 -0.0022421 -0.0026016 -0.0056432 0.0015918 0.0014889 0.0031541 -0.0048223 -0.0055897 -0.0154823 -0.0029142 -0.0070639 -0.0032994 -0.0042155 -0.0009055 -0.0006588 -0.0018532 -0.0041691 -0.0008617 -0.0010004 -0.0002801 -0.0009525 -0.0035253 -0.0073783 0.0000210 -0.0000349
-0.0047023 -0.0071498 -0.0043535 -0.0120478 -0.0059181 -0.0076981 -0.0021798 -0.0068130 0.0002470 -0.0042609 0.0004589 0.0007881 -0.0017082 -0.0036136 -0.0032339 0.0000271 -0.0053358 -0.0105678 -0.0000619 -0.0022623 -0.0025783 -0.0055739 0.0016078 0.0015074 0.0031213 -0.0048624 -0.0055267 -0.0156108 -0.0028976 -0.0069195 -0.0033428 -0.0041155 -0.0009162 -0.0006398 -0.0018602 -0.0040872 -0.0008896 -0.0010907 -0.0002945 -0.0009155 -0.0034610 -0.0073414 0.0000178 0.0000445
-0.0046958 -0.0078351 -0.0044408 -0.0121594 -0.0059487 -0.0077785 -0.0021280 -0.0066808 0.0002608 -0.0042591 0.0004416 0.0008671 -0.0018492 -0.0033268 -0.0032303 -0.0000149 -0.0052856 -0.0104918 -0.0000932 -0.0021195 -0.0025905 -0.0055468 0.0016971 0.0015886 0.0030645 -0.0047490 -0.0054994 -0.0154419 -0.0028895 -0.0067153 -0.0033730 -0.0040128 -0.0009280 -0.0005332 -0.0018106 -0.0039145 -0.0008754 -0.0009530 -0.0003136 -0.0007804 -0.0033516 -0.0073130 0.0000454 0.0002595
-0.0047687 -0.0079914 -0.0045349 -0.0120363 -0.0059647 -0.0076118 -0.0020875 -0.0065170 0.0003971 -0.0040537 0.0004354 0.0008437 -0.0020441 -0.0032809 -0.0031845 0.0000130 -0.0051151 -0.0104996 -0.0000919 -0.0018643 -0.0025637 -0.0054802 0.0016497 0.0016656 0.0029377 -0.0046713 -0.0054580 -0.0153026 -0.0028683 -0.0064509 -0.0033659 -0.0038634 -0.0009278 -0.0004294 -0.0017478 -0.0037522 -0.0008721 -0.0008757 -0.0003287 -0.0007510 -0.0032973 -0.0070254 0.0000656 0.0003410
-0.0048944 -0.0078059 -0.0045283 -0.0118876 -0.0059128 -0.0075530 -0.0022949 -0.0062513 0.0006022 -0.0039058 0.0003714 0.0008976 -0.0019317 -0.0031301 -0.0031598 -0.0001147 -0.0050003 -0.0105369 -0.0001099 -0.0018326 -0.0025980 -0.0055526 0.0015945 0.0017313 0.0028717 -0.0046801 -0.0054003 -0.0150022 -0.0028277 -0.0064901 -0.0033561 -0.0039396 -0.0009338 -0.0005295 -0.0017262 -0.0038251 -0.0008629 -0.0008825 -0.0003202 -0.0008816 -0.0033337 -0.0069605 0.0000682 0.0002536
-0.0048471 -0.0077760 -0.0045229 -0.0118915 -0.0058711 -0.0075263 -0.0022911 -0.0061675 0.0007000 -0.0040772 0.0004417 0.0011686 -0.0017917 -0.0028696 -0.0031281 -0.0000932 -0.0049340 -0.0105353 -0.0001792 -0.0018440 -0.0026011 -0.0057015 0.0016434 0.0018287 0.0029350 -0.0045780 -0.0053142 -0.0146681 -0.0027984 -0.0067611 -0.0033538 -0.0041510 -0.0009274 -0.0006982 -0.0017009 -0.0038852 -0.0008469 -0.0009128 -0.0003043 -0.0010251 -0.0032839 -0.0071138 0.0000787 0.0002012
-0.0047166 -0.0079160 -0.0045124 -0.0119247 -0.0058164 -0.0074829 -0.0021376 -0.0062284 0.0007834 -0.0042194 0.0005462 0.0011686 -0.0017725 -0.0028846 -0.0030968 -0.0000536 -0.0048763 -0.0105521 -0.0002071 -0.0017775 -0.0025963 -0.0056986 0.0016392 0.0018130 0.0029311 -0.0045586 -0.0052517 -0.0146530 -0.0027712 -0.0067798 -0.0033371 -0.0041748 -0.0009230 -0.0007396 -0.0016717 -0.0038040 -0.0008414 -0.0009422 -0.0003079 -0.0010369 -0.0032201 -0.0070696 0.0000798 0.0001894
-0.0047706 -0.0079044 -0.0045028 -0.0119258 -0.0056974 -0.0075740 -0.0023018 -0.0060409 0.0007654 -0.0042388 0.0005821 0.0010957 -0.0019835 -0.0026210 -0.0030777 -0.0000597 -0.0048431 -0.0105478 -0.0002104 -0.0017819 -0.0025765 -0.0056502 0.0016320 0.0017685 0.0029079 -0.0045930 -0.0052408 -0.0146010 -0.0027874 -0.0066243 -0.0033169 -0.0040578 -0.0009149 -0.0006912 -0.0016586 -0.0037650 -0.0008439 -0.0009091 -0.0003173 -0.0009437 -0.0032898 -0.0069571 0.0000668 0.0002486
-0.0047876 -0.0077784 -0.0045162 -0.0118329 -0.0055959 -0.0076308 -0.0022356 -0.0059144 0.0006823 -0.0040554 0.0005531 0.0011713 -0.0020081 -0.0025785 -0.0030438 0.0000035 -0.0047664 -0.0105524 -0.0001564 -0.0017975 -0.0025580 -0.0055692 0.0016412 0.0017881 0.0028932 -0.0045206 -0.0051443 -0.0145269 -0.0027739 -0.0064794 -0.0033198 -0.0039058 -0.0009076 -0.0005820 -0.0016489 -0.0037017 -0.0008562 -0.0008401 -0.0003325 -0.0008175 -0.0032748 -0.0068564 0.0000555 0.0003331
-0.0046717 -0.0077614 -0.0045364 -0.0116343 -0.0055907 -0.0075364 -0.0020579 -0.0059059 0.0005870 -0.0038040 0.0005310 0.0012017 -0.0018758 -0.0025741 -0.0030047 0.0000147 -0.0047360 -0.0104676 -0.0001610 -0.0017416 -0.0025691 -0.0054384 0.0016194 0.0017964 0.0028669 -0.0044570 -0.0051031 -0.0144302 -0.0027309 -0.0063281 -0.0033141 -0.0037633 -0.0009190 -0.0004650 -0.0016479 -0.0036347 -0.0008634 -0.0007677 -0.0003498 -0.0007100 -0.0032501 -0.0067947 0.0000399 0.0003639
-0.0046319 -0.0077596 -0.0045372 -0.0115516 -0.0056130 -0.0073856 -0.0018243 -0.0059762 0.0005861 -0.0037359 0.0005094 0.0011921 -0.0018197 -0.0025416 -0.0029536 0.0000581 -0.0047909 -0.0102930 -0.0001646 -0.0017183 -0.0025631 -0.0054266 0.0015890 0.0017507 0.0028650 -0.0044415 -0.0051236 -0.0143798 -0.0027339 -0.0063681 -0.0032949 -0.0038353 -0.0009128 -0.0005624 -0.0016412 -0.0036752 -0.0008568 -0.0008286 -0.0003403 -0.0008169 -0.0032367 -0.0068177 0.0000326 0.0002579
-0.0045867 -0.0076056 -0.0044154 -0.0115780 -0.0055738 -0.0072532 -0.0018993 -0.0059600 0.0006786 -0.0037215 0.0003609 0.0010915 -0.0016510 -0.0028162 -0.0028595 0.0001038 -0.0047795 -0.0102883 -0.0001181 -0.0017135 -0.0025477 -0.0055689 0.0015382 0.0015141 0.0027380 -0.0045652 -0.0051321 -0.0143861 -0.0026744 -0.0064483 -0.0032603 -0.0039756 -0.0008696 -0.0007387 -0.0016636 -0.0038080 -0.0008244 -0.0008615 -0.0003108 -0.0009677 -0.0032031 -0.0067945 0.0000600 0.0002569
-0.0044910 -0.0072211 -0.0043318 -0.0115028 -0.0054993 -0.0071774 -0.0020143 -0.0061220 0.0005703 -0.0037575 0.0004080 0.0011639 -0.0017523 -0.0030317 -0.0027352 0.0001403 -0.0046611 -0.0102346 -0.0001214 -0.0017338 -0.0025214 -0.0055873 0.0014809 0.0014898 0.0026835 -0.0044844 -0.0050886 -0.0140310 -0.0026806 -0.0063309 -0.0031881 -0.0038969 -0.0008223 -0.0005197 -0.0016145 -0.0037878 -0.0007475 -0.0005612 -0.0002898 -0.0007823 -0.0031428 -0.0067373 0.0000762 0.0004681
-0.0042914 -0.0063324 -0.0042303 -0.0110670 -0.0053027 -0.0067153 -0.0024147 -0.0056455 0.0010712 -0.0034989 0.0003398 0.0011614 -0.0021263 -0.0032945 -0.0024527 0.0001422 -0.0043976 -0.0101965 0.0000540 -0.0016072 -0.0025322 -0.0054103 0.0013727 0.0014901 0.0026268 -0.0044523 -0.0051074 -0.0139191 -0.0026772 -0.0061041 -0.0031273 -0.0037008 -0.0008068 -0.0002508 -0.0015005 -0.0034942 -0.0007310 -0.0004230 -0.0002898 -0.0006093 -0.0031263 -0.0067130 0.0000577 0.0005594
-0.0042020 -0.0060904 -0.0041777 -0.0109074 -0.0051806 -0.0065840 -0.0026196 -0.0055188 0.0012222 -0.0033168 0.0001670 0.0009746 -0.0021228 -0.0036049 -0.0022952 -0.0000068 -0.0043376 -0.0101586 0.0001293 -0.0016220 -0.0025321 -0.0052748 0.0012601 0.0013644 0.0025448 -0.0045489 -0.0051862 -0.0139780 -0.0026242 -0.0058843 -0.0031074 -0.0035153 -0.0008207 -0.0001253 -0.0015116 -0.0034034 -0.0007559 -0.0003592 -0.0002870 -0.0004431 -0.0031913 -0.0065966 0.0000413 0.0006014
-0.0043146 -0.0061594 -0.0041778 -0.0109887 -0.0051491 -0.0067624 -0.0024519 -0.0058937 0.0007539 -0.0033656 0.0002408 0.0010098 -0.0018850 -0.0034702 -0.0022322 -0.0000260 -0.0043990 -0.0099762 0.0000390 -0.0017522 -0.0024861 -0.0051583 0.0012611 0.0013509 0.0025253 -0.0044993 -0.0051574 -0.0137122 -0.0026697 -0.0056778 -0.0030852 -0.0033013 -0.0008027 0.0001152 -0.0016141 -0.0036431 -0.0007264 -0.0000738 -0.0002754 -0.0002402 -0.0031697 -0.0064902 0.0000357 0.0007522
-0.0042797 -0.0048254 -0.0040952 -0.0103068 -0.0049121 -0.0066256 -0.0027020 -0.0056635 0.0007211 -0.0033874 0.0003657 0.0012397 -0.0019716 -0.0033017 -0.0019539 -0.0003290 -0.0043781 -0.0097969 0.0001046 -0.0017672 -0.0024838 -0.0051098 0.0011914 0.0012698 0.0023704 -0.0044580 -0.0049850 -0.0133377 -0.0026784 -0.0056242 -0.0030031 -0.0031551 -0.0007077 0.0002875 -0.0016113 -0.0037189 -0.0006998 0.0000333 -0.0002560 -0.0002396 -0.0029904 -0.0064563 0.0000238 0.0007750
-0.0041220 -0.0041250 -0.0040891 -0.0100083 -0.0048055 -0.0065868 -0.0025617 -0.0058939 0.0004860 -0.0034791 0.0005373 0.0013171 -0.0020596 -0.0032923 -0.0018297 -0.0006315 -0.0044410 -0.0096799 0.0001512 -0.0019289 -0.0025041 -0.0050352 0.0010883 0.0012341 0.0023639 -0.0043220 -0.0048188 -0.0131831 -0.0026534 -0.0057783 -0.0030116 -0.0032308 -0.0006860 0.0001945 -0.0015276 -0.0036038 -0.0007253 -0.0001089 -0.0002387 -0.0002688 -0.0029737 -0.0063719 -0.0000010 0.0006751
-0.0040834 -0.0050260 -0.0040822 -0.0103989 -0.0049018 -0.0064201 -0.0026869 -0.0054851 0.0007662 -0.0034051 0.0006060 0.0012981 -0.0017917 -0.0030508 -0.0016536 -0.0005576 -0.0043693 -0.0098233 0.0002700 -0.0018442 -0.0024227 -0.0050040 0.0011086 0.0011642 0.0023038 -0.0043917 -0.0047642 -0.0132184 -0.0025441 -0.0056955 -0.0030498 -0.0032988 -0.0007436 0.0000232 -0.0015297 -0.0034980 -0.0007819 -0.0003316 -0.0002662 -0.0003862 -0.0030279 -0.0062934 -0.0000095 0.0006281
-0.0041434 -0.0060871 -0.0040862 -0.0106263 -0.0048662 -0.0066894 -0.0030947 -0.0050115 0.0008515 -0.0034835 0.0006758 0.0014722 -0.0017425 -0.0027691 -0.0014481 -0.0007785 -0.0043871 -0.0098754 0.0002474 -0.0017946 -0.0023922 -0.0050927 0.0011565 0.0011859 0.0023120 -0.0043424 -0.0047374 -0.0130715 -0.0024851 -0.0056035 -0.0030692 -0.0032457 -0.0007805 0.0000170 -0.0015229 -0.0033855 -0.0008009 -0.0003530 -0.0002905 -0.0003586 -0.0030079 -0.0062163 -0.0000117 0.0006865
-0.0041391 -0.0063950 -0.0041751 -0.0105957 -0.0048111 -0.0068357 -0.0030401 -0.0049133 0.0006217 -0.0034611 0.0007217 0.0016176 -0.0018623 -0.0026229 -0.0013725 -0.0008515 -0.0044585 -0.0096885 0.0002103 -0.0019025 -0.0024513 -0.0050092 0.0012128 0.0013255 0.0024634 -0.0041514 -0.0047475 -0.0129575 -0.0025436 -0.0055649 -0.0031219 -0.0031305 -0.0008147 0.0000979 -0.0014914 -0.0032934 -0.0008175 -0.0003000 -0.0003089 -0.0001826 -0.0030401 -0.0061410 -0.0000363 0.0007611
-0.0042385 -0.0062991 -0.0042009 -0.0104657 -0.0048711 -0.0066388 -0.0028445 -0.0048721 0.0009056 -0.0032448 0.0007069 0.0015224 -0.0016539 -0.0025844 -0.0012516 -0.0007882 -0.0044013 -0.0096553 0.0002987 -0.0018768 -0.0024498 -0.0049177 0.0012248 0.0013366 0.0024416 -0.0041936 -0.0047477 -0.0129599 -0.0025338 -0.0053827 -0.0031314 -0.0030047 -0.0008442 0.0001565 -0.0015177 -0.0032592 -0.0008504 -0.0003279 -0.0003345 -0.0001431 -0.0029838 -0.0061441 -0.0000509 0.0007666
-0.0042214 -0.0063902 -0.0040900 -0.0105591 -0.0048980 -0.0066561 -0.0025021 -0.0052439 0.0009371 -0.0032609 0.0007534 0.0012901 -0.0015465 -0.0026508 -0.0012104 -0.0008441 -0.0042843 -0.0097008 0.0002890 -0.0019152 -0.0024415 -0.0049590 0.0011794 0.0013031 0.0024272 -0.0041787 -0.0047789 -0.0129368 -0.0025178 -0.0054425 -0.0031301 -0.0031032 -0.0008670 0.0000551 -0.0015235 -0.0032683 -0.0008518 -0.0003978 -0.0003348 -0.0002477 -0.0029712 -0.0061577 -0.0000509 0.0006831
-0.0041684 -0.0064241 -0.0040388 -0.0106992 -0.0049255 -0.0065147 -0.0023786 -0.0053366 0.0007287 -0.0032647 0.0007260 0.0011921 -0.0017895 -0.0025802 -0.0012212 -0.0008901 -0.0042344 -0.0096517 0.0003048 -0.0020116 -0.0024982 -0.0049670 0.0011729 0.0012164 0.0024035 -0.0041523 -0.0047757 -0.0129112 -0.0025251 -0.0055574 -0.0031062 -0.0032610 -0.0008699 -0.0000718 -0.0014967 -0.0032488 -0.0008491 -0.0004512 -0.0003400 -0.0003667 -0.0030404 -0.0060882 -0.0000533 0.0006305
-0.0042221 -0.0063198 -0.0040832 -0.0106121 -0.0049548 -0.0063374 -0.0026998 -0.0051136 0.0006675 -0.0032109 0.0006167 0.0012994 -0.0017685 -0.0026151 -0.0011873 -0.0008754 -0.0043086 -0.0095976 0.0002989 -0.0019135 -0.0025163 -0.0049375 0.0011826 0.0012019 0.0023831 -0.0041447 -0.0046514 -0.0129299 -0.0025049 -0.0055015 -0.0030920 -0.0032174 -0.0008735 -0.0000477 -0.0014896 -0.0031991 -0.0008624 -0.0004068 -0.0003546 -0.0002987 -0.0030705 -0.0059793 -0.0000632 0.0006800
-0.0042120 -0.0060234 -0.0040158 -0.0104304 -0.0048721 -0.0063479 -0.0028105 -0.0050456 0.0006936 -0.0031752 0.0005989 0.0014164 -0.0015256 -0.0028795 -0.0012432 -0.0007480 -0.0043779 -0.0095126 0.0002066 -0.0018028 -0.0025295 -0.0048816 0.0011474 0.0012760 0.0024078 -0.0040653 -0.0045414 -0.0128546 -0.0025010 -0.0054228 -0.0031000 -0.0030746 -0.0008885 0.0000505 -0.0014834 -0.0031417 -0.0008654 -0.0002966 -0.0003646 -0.0001332 -0.0030429 -0.0059404 -0.0000827 0.0007595
-0.0041322 -0.0057448 -0.0040315 -0.0102142 -0.0048107 -0.0063649 -0.0026940 -0.0051674 0.0006141 -0.0031024 0.0006953 0.0013649 -0.0014242 -0.0029455 -0.0013351 -0.0005822 -0.0043935 -0.0093685 0.0001186 -0.0017766 -0.0025640 -0.0047451 0.0011283 0.0012698 0.0024303 -0.0039717 -0.0045965 -0.0127117 -0.0025419 -0.0052577 -0.0031083 -0.0028942 -0.0009094 0.0001987 -0.0014886 -0.0030515 -0.0008693 -0.0001602 -0.0003792 0.0000789 -0.0030080 -0.0058577 -0.0001048 0.0008609
-0.0039569 -0.0056228 -0.0040593 -0.0100279 -0.0048621 -0.0062488 -0.0024702 -0.0053428 0.0006105 -0.0030802 0.0007168 0.0013465 -0.0014818 -0.0027984 -0.0013439 -0.0004808 -0.0043884 -0.0092545 0.0001385 -0.0017389 -0.0025415 -0.0045989 0.0011052 0.0012507 0.0024352 -0.0039117 -0.0047081 -0.0125920 -0.0025822 -0.0050918 -0.0031043 -0.0027884 -0.0009288 0.0002938 -0.0014899 -0.0029578 -0.0008866 -0.0001417 -0.0003981 0.0001430 -0.0029979 -0.0057417 -0.0001157 0.0008246
-0.0039802 -0.0053333 -0.0039789 -0.0099876 -0.0048907 -0.0062433 -0.0022971 -0.0054970 0.0007144 -0.0030661 0.0006910 0.0012630 -0.0015744 -0.0026677 -0.0014018 -0.0004672 -0.0043595 -0.0093132 0.0001714 -0.0017424 -0.0025510 -0.0045955 0.0010933 0.0011682 0.0024329 -0.0038885 -0.0046994 -0.0126258 -0.0025837 -0.0051971 -0.0031051 -0.0029014 -0.0009478 0.0001949 -0.0014610 -0.0028968 -0.0008887 -0.0002311 -0.0004091 0.0000530 -0.0029729 -0.0057228 -0.0001155 0.0006667
-0.0039777 -0.0051675 -0.0039769 -0.0100509 -0.0048526 -0.0063609 -0.0024002 -0.0056661 0.0006101 -0.0030278 0.0006645 0.0009972 -0.0016631 -0.0026557 -0.0015384 -0.0004242 -0.0044226 -0.0092496 0.0001605 -0.0017627 -0.0025656 -0.0046169 0.0010730 0.0010311 0.0024101 -0.0039202 -0.0046550 -0.0127389 -0.0025453 -0.0053138 -0.0031109 -0.0030270 -0.0009548 0.0000820 -0.0014117 -0.0027601 -0.0008833 -0.0003373 -0.0004302 -0.0000362 -0.0030336 -0.0056298 -0.0001276 0.0005772
-0.0038434 -0.0051128 -0.0038995 -0.0100652 -0.0048679 -0.0063338 -0.0024546 -0.0059391 0.0006009 -0.0030027 0.0006013 0.0007982 -0.0017736 -0.0025794 -0.0016079 -0.0004000 -0.0044271 -0.0091138 0.0001544 -0.0017895 -0.0025699 -0.0045443 0.0010170 0.0009774 0.0023826 -0.0039412 -0.0046872 -0.0127526 -0.0025366 -0.0052371 -0.0031196 -0.0029959 -0.0009564 0.0001257 -0.0013798 -0.0026382 -0.0008840 -0.0003345 -0.0004498 -0.0000025 -0.0030482 -0.0055575 -0.0001428 0.0005923
-0.0037761 -0.0047824 -0.0038183 -0.0098517 -0.0048949 -0.0062166 -0.0022310 -0.0060976 0.0008582 -0.0029109 0.0004414 0.0006575 -0.0015451 -0.0027322 -0.0015750 -0.0004202 -0.0043097 -0.0090607 0.0001586 -0.0017544 -0.0025765 -0.0044434 0.0009868 0.0009115 0.0023267 -0.0039604 -0.0047352 -0.0127706 -0.0025605 -0.0051443 -0.0031326 -0.0029235 -0.0009491 0.0002531 -0.0013611 -0.0026166 -0.0008711 -0.0001900 -0.0004625 0.0001450 -0.0030424 -0.0055018 -0.0001477 0.0006955
-0.0036661 -0.0043440 -0.0037779 -0.0096528 -0.0049593 -0.0061064 -0.0022652 -0.0060033 0.0010160 -0.0028667 0.0002817 0.0005680 -0.0015450 -0.0030120 -0.0015057 -0.0004108 -0.0041281 -0.0088691 0.0001341 -0.0016454 -0.0025636 -0.0043194 0.0009642 0.0007398 0.0022594 -0.0039528 -0.0047616 -0.0128002 -0.0026035 -0.0049344 -0.0031182 -0.0028159 -0.0009383 0.0005064 -0.0013405 -0.0025307 -0.0008332 0.0000781 -0.0004752 0.0003986 -0.0030277 -0.0053716 -0.0001425 0.0008650
-0.0035746 -0.0036068 -0.0037117 -0.0093630 -0.0049473 -0.0059169 -0.0026463 -0.0057443 0.0011840 -0.0027440 0.0001136 0.0004060 -0.0017694 -0.0033354 -0.0014277 -0.0005782 -0.0038184 -0.0088050 0.0001267 -0.0015561 -0.0025578 -0.0042866 0.0009415 0.0004672 0.0021341 -0.0039274 -0.0047489 -0.0127832 -0.0025755 -0.0048663 -0.0030640 -0.0028679 -0.0009025 0.0006687 -0.0013313 -0.0025015 -0.0007719 0.0003085 -0.0004549 0.0005007 -0.0028881 -0.0053089 -0.0001192 0.0008894
-0.0032093 -0.0021769 -0.0034867 -0.0087526 -0.0047401 -0.0057790 -0.0028670 -0.0059019 0.0011714 -0.0027552 -0.0001574 0.0001563 -0.0019152 -0.0038204 -0.0017952 -0.0007382 -0.0036333 -0.0085522 0.0001269 -0.0015982 -0.0025609 -0.0042686 0.0007847 0.0003249 0.0018779 -0.0040500 -0.0046786 -0.0127152 -0.0024782 -0.0048645 -0.0028947 -0.0028618 -0.0007256 0.0009907 -0.0013367 -0.0024987 -0.0006813 0.0005598 -0.0004094 0.0005405 -0.0027277 -0.0050596 -0.0000883 0.0008722
-0.0021417 0.0004594 -0.0027747 -0.0070903 -0.0042746 -0.0056589 -0.0028886 -0.0067350 0.0009543 -0.0029511 -0.0004474 -0.0000824 -0.0021956 -0.0042341 -0.0027705 -0.0002962 -0.0036198 -0.0079343 0.0001417 -0.0019723 -0.0025271 -0.0040590 0.0005054 0.0003470 0.0015049 -0.0040455 -0.0046845 -0.0124912 -0.0024170 -0.0046916 -0.0026812 -0.0025647 -0.0005281 0.0015374 -0.0013069 -0.0023545 -0.0006030 0.0008508 -0.0003796 0.0007298 -0.0026027 -0.0047070 -0.0000662 0.0009370
-0.0012739 0.0025988 -0.0021446 -0.0054617 -0.0038126 -0.0055117 -0.0029839 -0.0072706 0.0008911 -0.0030474 -0.0005681 -0.0002579 -0.0022848 -0.0045974 -0.0033412 0.0002825 -0.0036439 -0.0073635 0.0001582 -0.0022369 -0.0025098 -0.0036772 0.0003125 0.0003355 0.0011865 -0.0039302 -0.0047327 -0.0123344 -0.0024053 -0.0044454 -0.0025778 -0.0022328 -0.0004543 0.0019007 -0.0012907 -0.0022473 -0.0005818 0.0009996 -0.0003645 0.0008869 -0.0025662 -0.0044745 -0.0000652 0.0009917
-0.0010656 0.0032503 -0.0019355 -0.0050604 -0.0036215 -0.0056342 -0.0027465 -0.0075257 0.0006982 -0.0031837 -0.0003755 -0.0003740 -0.0023839 -0.0047468 -0.0033801 0.0005260 -0.0036229 -0.0069447 0.0001510 -0.0022864 -0.0024663 -0.0034427 0.0002543 0.0003363 0.0010788 -0.0038303 -0.0047238 -0.0121565 -0.0024230 -0.0041683 -0.0025324 -0.0019520 -0.0004331 0.0021852 -0.0012734 -0.0021158 -0.0005819 0.0011051 -0.0003620 0.0010766 -0.0025284 -0.0042707 -0.0000885 0.0010995
-0.0009620 0.0036278 -0.0018642 -0.0050328 -0.0036346 -0.0054807 -0.0027093 -0.0073097 0.0006168 -0.0031147 -0.0002342 -0.0004051 -0.0025548 -0.0046552 -0.0034123 0.0007986 -0.0034723 -0.0066985 0.0001894 -0.0022651 -0.0023999 -0.0033357 0.0002411 0.0004014 0.0010767 -0.0036570 -0.0046757 -0.0119407 -0.0024128 -0.0040234 -0.0025045 -0.0018639 -0.0004390 0.0022086 -0.0012335 -0.0020160 -0.0005769 0.0011124 -0.0003582 0.0011481 -0.0025025 -0.0042129 -0.0000990 0.0010964
-0.0008963 0.0038113 -0.0019074 -0.0049501 -0.0037076 -0.0050648 -0.0028798 -0.0069499 0.0007483 -0.0030276 -0.0002154 -0.0004215 -0.0026629 -0.0043299 -0.0033552 0.0009869 -0.0034482 -0.0065621 0.0002485 -0.0020717 -0.0023920 -0.0033031 0.0002925 0.0004646 0.0010981 -0.0035683 -0.0046595 -0.0117916 -0.0024016 -0.0040527 -0.0025034 -0.0019861 -0.0004444 0.0019699 -0.0012088 -0.0019810 -0.0005656 0.0010365 -0.0003538 0.0010412 -0.0025068 -0.0042476 -0.0001012 0.0009696
-0.0009180 0.0036612 -0.0019514 -0.0049199 -0.0036019 -0.0051718 -0.0028583 -0.0070447 0.0006407 -0.0031417 -0.0001783 -0.0004795 -0.0026009 -0.0042795 -0.0032934 0.0010163 -0.0035970 -0.0064874 0.0003168 -0.0019801 -0.0023712 -0.0032958 0.0003680 0.0005103 0.0011091 -0.0035613 -0.0046749 -0.0116720 -0.0023971 -0.0040192 -0.0024760 -0.0020335 -0.0004333 0.0019098 -0.0011758 -0.0018975 -0.0005700 0.0009882 -0.0003626 0.0009803 -0.0024918 -0.0042358 -0.0001113 0.0008714
-0.0007958 0.0034705 -0.0019105 -0.0049383 -0.0035061 -0.0053369 -0.0026478 -0.0073461 0.0004035 -0.0031094 -0.0001444 -0.0005532 -0.0025548 -0.0043291 -0.0033719 0.0009336 -0.0036609 -0.0065261 0.0003077 -0.0020163 -0.0023566 -0.0031811 0.0003951 0.0005135 0.0010858 -0.0035621 -0.0046218 -0.0116478 -0.0023710 -0.0039458 -0.0024619 -0.0019200 -0.0004304 0.0020794 -0.0011764 -0.0018746 -0.0005848 0.0010488 -0.0003707 0.0010740 -0.0024295 -0.0042485 -0.0001211 0.0008723
-0.0007135 0.0033837 -0.0018639 -0.0048635 -0.0035367 -0.0053029 -0.0027418 -0.0074415 0.0002469 -0.0031356 -0.0001490 -0.0005438 -0.0026279 -0.0042423 -0.0034936 0.0007249 -0.0036761 -0.0064244 0.0002402 -0.0021018 -0.0023556 -0.0030396 0.0004258 0.0004893 0.0010448 -0.0034998 -0.0045821 -0.0115741 -0.0023724 -0.0038433 -0.0024671 -0.0017234 -0.0004389 0.0023485 -0.0011554 -0.0017856 -0.0005861 0.0011896 -0.0003809 0.0012252 -0.0024080 -0.0041432 -0.0001219 0.0009758
-0.0007069 0.0034019 -0.0018212 -0.0047483 -0.0035109 -0.0052482 -0.0027736 -0.0072720 0.0002684 -0.0031681 -0.0001711 -0.0004800 -0.0026315 -0.0041601 -0.0034105 0.0007546 -0.0036329 -0.0062005 0.0001895 -0.0019313 -0.0023406 -0.0028534 0.0004380 0.0005032 0.0010355 -0.0034623 -0.0045952 -0.0114638 -0.0023568 -0.0037054 -0.0024469 -0.0015427 -0.0004447 0.0025080 -0.0011429 -0.0017162 -0.0005933 0.0012411 -0.0003913 0.0012872 -0.0024289 -0.0040395 -0.0001249 0.0010429
-0.0006826 0.0034149 -0.0018167 -0.0047062 -0.0034660 -0.0052842 -0.0023535 -0.0072934 0.0003358 -0.0030597 -0.0002258 -0.0004505 -0.0025626 -0.0041975 -0.0032824 0.0008655 -0.0035594 -0.0061759 0.0001944 -0.0017649 -0.0022778 -0.0028981 0.0004086 0.0005610 0.0010499 -0.0034655 -0.0046379 -0.0113829 -0.0023416 -0.0037458 -0.0024322 -0.0016032 -0.0004403 0.0023255 -0.0011607 -0.0017563 -0.0006007 0.0011460 -0.0003903 0.0012045 -0.0023927 -0.0040958 -0.0001307 0.0009854
-0.0007251 0.0033508 -0.0018280 -0.0047439 -0.0034173 -0.0053204 -0.0025562 -0.0071084 0.0003646 -0.0030167 -0.0002927 -0.0004319 -0.0025357 -0.0042205 -0.0032840 0.0006992 -0.0034539 -0.0063560 0.0002021 -0.0018438 -0.0022103 -0.0030381 0.0004130 0.0005938 0.0010217 -0.0035002 -0.0045967 -0.0113442 -0.0023528 -0.0038111 -0.0024338 -0.0016980 -0.0004524 0.0021707 -0.0011801 -0.0018166 -0.0006016 0.0011144 -0.0003909 0.0011686 -0.0024022 -0.0041024 -0.0001399 0.0009553
-0.0007314 0.0030629 -0.0018426 -0.0047485 -0.0033380 -0.0054312 -0.0028257 -0.0070534 0.0002827 -0.0031114 -0.0003020 -0.0005001 -0.0026454 -0.0039976 -0.0032899 0.0005892 -0.0034998 -0.0063584 0.0002389 -0.0019016 -0.0021909 -0.0029898 0.0004839 0.0005862 0.0009558 -0.0035186 -0.0045375 -0.0112978 -0.0023153 -0.0037379 -0.0024205 -0.0016341 -0.0004627 0.0022434 -0.0011886 -0.0018146 -0.0006041 0.0011727 -0.0004000 0.0011896 -0.0024324 -0.0040280 -0.0001346 0.0010095
-0.0007298 0.0028958 -0.0019079 -0.0045522 -0.0031723 -0.0055309 -0.0028127 -0.0072075 0.0001964 -0.0030430 -0.0003641 -0.0006546 -0.0027535 -0.0039160 -0.0033998 0.0003815 -0.0036326 -0.0063575 0.0001784 -0.0022944 -0.0022581 -0.0028772 0.0005843 0.0005555 0.0007727 -0.0036448 -0.0045935 -0.0112403 -0.0022880 -0.0035667 -0.0023617 -0.0014897 -0.0004364 0.0025785 -0.0016478 -0.0027633 -0.0006350 0.0016017 -0.0003794 0.0009264 -0.0023308 -0.0037441 -0.0001019 0.0011352
-0.0006376 0.0031003 -0.0017243 -0.0038658 -0.0021060 -0.0063287 -0.0028245 -0.0072518 -0.0004744 -0.0033435 -0.0003525 -0.0006280 -0.0029036 -0.0039675 -0.0039780 -0.0004471 -0.0036643 -0.0063034 -0.0012116 -0.0030749 -0.0024946 -0.0029206 0.0003710 0.0005508 0.0010963 -0.0047117 -0.0045996 -0.0108429 -0.0022105 -0.0032219 -0.0022392 -0.0011743 -0.0004366 0.0027342 -0.0029285 -0.0055642 -0.0007016 0.0022723 -0.0001513 0.0009127 -0.0021779 -0.0033327 -0.0000637 0.0013307
-0.0005101 0.0036407 -0.0013988 -0.0029242 -0.0008851 -0.0069494 -0.0027721 -0.0070805 -0.0007834 -0.0039428 -0.0003925 -0.0006060 -0.0029249 -0.0039837 -0.0045253 -0.0008970 -0.0036532 -0.0060087 -0.0027242 -0.0036043 -0.0027590 -0.0028852 -0.0001400 0.0004961 0.0010256 -0.0065929 -0.0046141 -0.0105714 -0.0021026 -0.0030036 -0.0020816 -0.0009326 -0.0004090 0.0024744 -0.0040689 -0.0083192 -0.0007685 0.0024062 0.0001769 0.0011912 -0.0020888 -0.0029018 -0.0000932 0.0012218
-0.0004044 0.0043023 -0.0011793 -0.0023946 -0.0000823 -0.0067570 -0.0026600 -0.0069384 -0.0006477 -0.0043448 -0.0004521 -0.0009120 -0.0029454 -0.0037150 -0.0046407 -0.0006570 -0.0035563 -0.0056110 -0.0031613 -0.0057006 -0.0027074 -0.0030071 -0.0008330 -0.0003397 -0.0006609 -0.0086387 -0.0046285 -0.0117655 -0.0020825 -0.0032207 -0.0018673 -0.0006867 -0.0002824 0.0024324 -0.0041000 -0.0086687 -0.0007593 0.0028466 0.0003052 0.0012520 -0.0014387 -0.0013306 -0.0001177 0.0011094
-0.0002247 0.0057249 -0.0002781 -0.0002107 0.0037460 -0.0045473 -0.0016349 -0.0073708 -0.0037199 -0.0033612 -0.0004922 0.0010938 -0.0018953 -0.0009576 -0.0054324 -0.0012187 -0.0032033 -0.0028766 -0.0039878 -0.0095467 -0.0023337 -0.0020576 -0.0027033 -0.0046255 -0.0050092 -0.0105413 -0.0035490 -0.0127421 -0.0016370 -0.0024021 -0.0008503 0.0011384 -0.0000622 0.0023862 -0.0033430 -0.0068702 -0.0007422 0.0038210 -0.0000976 0.0005092 0.0000268 0.0020014 -0.0002186 0.0012651
0.0007049 0.0045510 0.0010634 0.0045339 0.0057579 0.0002962 0.0003956 -0.0075642 -0.0062565 -0.0001745 -0.0013855 0.0027747 0.0010695 0.0039165 -0.0065089 -0.0033646 -0.0009284 0.0017024 -0.0035716 -0.0133935 -0.0011379 0.0009994 -0.0054026 -0.0107580 -0.0117240 -0.0074441 0.0004268 -0.0078752 0.0004422 0.0028876 0.0006046 0.0041508 0.0000338 0.0022655 -0.0023121 -0.0041872 -0.0008390 0.0041237 -0.0010892 -0.0013839 0.0026449 0.0080963 -0.0007636 0.0014162
0.0030535 0.0031264 0.0025035 0.0101188 0.0058920 0.0030634 0.0024760 -0.0035491 -0.0046429 0.0040459 -0.0021422 0.0020611 0.0021540 0.0079299 -0.0062621 -0.0041840 0.0020854 0.0067972 -0.0016812 -0.0138043 0.0008223 0.0051429 -0.0063708 -0.0150578 -0.0126633 -0.0012522 0.0045101 -0.0036659 0.0030804 0.0090006 0.0016210 0.0069385 -0.0003108 0.0020556 -0.0014096 -0.0016448 -0.0009901 0.0037002 -0.0020441 -0.0027884 0.0042214 0.0115012 -0.0015578 0.0013197
0.0048089 0.0068208 0.0037049 0.0135980 0.0053722 0.0029240 0.0037321 0.0007745 -0.0039328 0.0068573 -0.0009687 0.0019343 0.0013908 0.0098187 -0.0057146 -0.0031463 0.0033566 0.0094624 -0.0006206 -0.0123806 0.0017720 0.0073509 -0.0061850 -0.0170844 -0.0113192 0.0018148 0.0060507 -0.0035898 0.0042225 0.0113724 0.0017119 0.0079771 -0.0009835 0.0014991 -0.0010345 -0.0003944 -0.0010788 0.0033896 -0.0023512 -0.0027043 0.0046251 0.0116568 -0.0018428 0.0009247
0.0052627 0.0111377 0.0042017 0.0144759 0.0053449 0.0008540 0.0037269 0.0022002 -0.0040503 0.0075175 -0.0004143 0.0015384 0.0011443 0.0100579 -0.0054214 -0.0018545 0.0038743 0.0106652 -0.0002123 -0.0127196 0.0019465 0.0081465 -0.0057114 -0.0152734 -0.0105609 0.0043588 0.0063906 -0.0027952 0.0049314 0.0124478 0.0015082 0.0078725 -0.0015218 0.0010736 -0.0007414 0.0004871 -0.0009822 0.0035377 -0.0023734 -0.0024787 0.0049367 0.0122699 -0.0019094 0.0006684
0.0049907 0.0149833 0.0047036 0.0152732 0.0098969 -0.0014859 0.0034487 0.0039925 -0.0043525 0.0081367 0.0003399 0.0019703 0.0010311 0.0101478 -0.0050210 0.0000595 0.0041679 0.0126763 0.0003032 -0.0134603 0.0023901 0.0096319 -0.0048946 -0.0129785 -0.0096807 0.0076297 0.0071411 0.0000456 0.0055309 0.0135048 0.0016282 0.0080456 -0.0016659 0.0011743 -0.0001060 0.0022289 -0.0007442 0.0039473 -0.0024355 -0.0025335 0.0051342 0.0130013 -0.0021355 0.0006758
0.0051201 0.0165248 0.0052444 0.0163223 0.0120815 0.0000159 0.0036657 0.0062400 -0.0048503 0.0082220 0.0020675 0.0054906 0.0005480 0.0106559 -0.0046915 0.0018862 0.0039821 0.0140816 0.0007162 -0.0147784 0.0028313 0.0109661 -0.0029285 -0.0103140 -0.0086840 0.0100992 0.0081279 0.0021015 0.0056616 0.0138193 0.0016150 0.0080767 -0.0017055 0.0013500 0.0004618 0.0038433 -0.0006212 0.0038972 -0.0024970 -0.0026174 0.0050030 0.0130384 -0.0024333 0.0004155
0.0066407 0.0146108 0.0055498 0.0170371 0.0106116 0.0000616 0.0045699 0.0090799 -0.0054648 0.0072882 0.0048879 0.0119141 0.0002315 0.0109648 -0.0044941 0.0037231 0.0043272 0.0150930 0.0014246 -0.0161527 0.0033089 0.0121578 -0.0006722 -0.0077774 -0.0077371 0.0115701 0.0087668 0.0016872 0.0052457 0.0130684 0.0017031 0.0085590 -0.0018560 0.0013880 0.0013238 0.0058679 -0.0006077 0.0035994 -0.0027339 -0.0027955 0.0048631 0.0137720 -0.0033623 -0.0008161
0.0065320 0.0159249 0.0066970 0.0193094 0.0050965 -0.0041058 0.0056722 0.0116140 -0.0068895 0.0041840 0.0093498 0.0171637 -0.0018269 0.0131342 -0.0050743 0.0054385 0.0058951 0.0177199 0.0028400 -0.0154776 0.0040490 0.0140175 0.0004794 -0.0063660 -0.0072590 0.0124866 0.0106327 0.0033825 0.0048564 0.0120664 0.0025421 0.0100553 -0.0011372 0.0020889 0.0022740 0.0079530 -0.0000778 0.0049412 -0.0024790 -0.0024761 0.0057145 0.0159416 -0.0034895 -0.0002627
0.0052786 0.0192200 0.0073921 0.0217347 0.0059539 0.0011746 0.0060482 0.0136342 -0.0079491 0.0027110 0.0097162 0.0171610 -0.0026335 0.0140130 -0.0049575 0.0062049 0.0070435 0.0195751 0.0021804 -0.0092396 0.0043131 0.0145437 0.0021238 -0.0019988 -0.0057094 0.0137653 0.0111251 0.0108793 0.0046379 0.0117290 0.0032120 0.0105091 -0.0001340 0.0028805 0.0023528 0.0080029 0.0006527 0.0065874 -0.0014874 -0.0011879 0.0061355 0.0157820 -0.0018098 0.0020193
0.0055605 0.0189188 0.0065368 0.0213196 0.0100453 0.0096556 0.0061688 0.0155368 -0.0070832 0.0044312 0.0066738 0.0150181 -0.0008534 0.0122269 -0.0040652 0.0072979 0.0073400 0.0189652 0.0005838 0.0020389 0.0041094 0.0136150 0.0034151 0.0023360 -0.0040097 0.0153643 0.0105981 0.0177796 0.0044407 0.0118597 0.0031638 0.0096717 0.0000646 0.0028412 0.0021902 0.0078149 0.0006959 0.0060979 -0.0008883 0.0001942 0.0059063 0.0145318 -0.0005533 0.0030292
0.0058554 0.0176236 0.0055044 0.0192793 0.0089912 0.0120199 0.0059872 0.0149532 -0.0060494 0.0053142 0.0053441 0.0143805 -0.0007252 0.0120653 -0.0038176 0.0081361 0.0074229 0.0180931 0.0008180 0.0090806 0.0040480 0.0130424 0.0033999 0.0031552 -0.0036644 0.0160964 0.0104401 0.0207676 0.0048196 0.0124330 0.0031251 0.0090819 0.0001851 0.0033446 0.0022946 0.0082287 0.0003964 0.0047164 -0.0007145 0.0009329 0.0058948 0.0144637 -0.0001865 0.0031907
0.0057856 0.0170564 0.0051299 0.0181221 0.0077855 0.0119278 0.0055740 0.0134710 -0.0056067 0.0056475 0.0047343 0.0139680 -0.0009561 0.0122414 -0.0036753 0.0078372 0.0073431 0.0176842 0.0012738 0.0112937 0.0039892 0.0125512 0.0032355 0.0030736 -0.0035946 0.0160600 0.0097798 0.0225105 0.0050226 0.0127301 0.0031481 0.0089594 0.0001913 0.0035951 0.0023187 0.0082215 0.0002637 0.0040098 -0.0006030 0.0011351 0.0058492 0.0142894 -0.0000542 0.0031387
0.0057564 0.0164766 0.0049060 0.0176573 0.0071623 0.0117322 0.0054863 0.0127342 -0.0053862 0.0057187 0.0044625 0.0135684 -0.0009068 0.0121271 -0.0035514 0.0077753 0.0073170 0.0176055 0.0014917 0.0125290 0.0039325 0.0122823 0.0033736 0.0032935 -0.0030504 0.0161254 0.0093014 0.0240086 0.0051081 0.0130297 0.0031843 0.0092523 0.0000557 0.0032361 0.0024296 0.0084805 0.0002245 0.0036197 -0.0006396 0.0010924 0.0057290 0.0140402 0.0000446 0.0032163
0.0056670 0.0159739 0.0047085 0.0172074 0.0064155 0.0113280 0.0054315 0.0119922 -0.0053096 0.0056995 0.0043518 0.0132602 -0.0008684 0.0120240 -0.0034591 0.0076073 0.0072581 0.0174348 0.0015704 0.0130208 0.0039283 0.0118946 0.0034839 0.0033927 -0.0027064 0.0160108 0.0089605 0.0243198 0.0050954 0.0129125 0.0032173 0.0091074 0.0000923 0.0030262 0.0024997 0.0084909 0.0002360 0.0032369 -0.0006881 0.0008481 0.0055596 0.0136085 0.0001143 0.0032481
0.0055452 0.0157372 0.0045656 0.0169379 0.0059092 0.0108570 0.0052000 0.0115041 -0.0053409 0.0054069 0.0044475 0.0130955 -0.0008213 0.0119083 -0.0033973 0.0073092 0.0071770 0.0171713 0.0015194 0.0129594 0.0039366 0.0114419 0.0034851 0.0034023 -0.0026295 0.0157731 0.0087633 0.0242253 0.0050601 0.0125960 0.0031938 0.0087620 0.0000904 0.0026389 0.0024844 0.0082312 0.0002397 0.0028762 -0.0007052 0.0005516 0.0054275 0.0132452 0.0001018 0.0030993
0.0054499 0.0154624 0.0044561 0.0166748 0.0055535 0.0104900 0.0049219 0.0110220 -0.0053236 0.0050761 0.0044408 0.0129261 -0.0006590 0.0116749 -0.0033855 0.0072017 0.0071169 0.0169774 0.0014762 0.0130039 0.0039135 0.0111090 0.0034710 0.0033829 -0.0024881 0.0156166 0.0086538 0.0241939 0.0050012 0.0124872 0.0031686 0.0085798 0.0000811 0.0024436 0.0024502 0.0079992 0.0002149 0.0026625 -0.0006903 0.0004550 0.0053292 0.0129905 0.0000808 0.0030397
0.0052968 0.0150513 0.0043677 0.0162733 0.0050764 0.0101898 0.0048444 0.0104069 -0.0052623 0.0048272 0.0043489 0.0127480 -0.0005911 0.0115475 -0.0034249 0.0071177 0.0070360 0.0167517 0.0014258 0.0129903 0.0038680 0.0108851 0.0034307 0.0032804 -0.0023761 0.0154349 0.0086477 0.0239179 0.0049335 0.0124448 0.0031510 0.0084834 0.0000751 0.0023721 0.0024046 0.0077717 0.0001813 0.0025389 -0.0006770 0.0004139 0.0052372 0.0128166 0.0000729 0.0030436
0.0051346 0.0147928 0.0042834 0.0160196 0.0046513 0.0100188 0.0047894 0.0098843 -0.0051724 0.0046944 0.0042549 0.0125387 -0.0006564 0.0115565 -0.0034875 0.0069230 0.0068812 0.0165946 0.0013520 0.0128787 0.0038257 0.0107702 0.0033463 0.0031321 -0.0023616 0.0152251 0.0086675 0.0235944 0.0048513 0.0124373 0.0031330 0.0084670 0.0000668 0.0024053 0.0023527 0.0075671 0.0001470 0.0024417 -0.0006797 0.0003946 0.0051860 0.0126994 0.0000616 0.0030469
0.0051160 0.0148084 0.0042763 0.0160116 0.0047671 0.0103260 0.0046798 0.0099002 -0.0051101 0.0047378 0.0040187 0.0120531 -0.0005522 0.0113976 -0.0036114 0.0067416 0.0067332 0.0163622 0.0012704 0.0126006 0.0038051 0.0106028 0.0031615 0.0028414 -0.0024970 0.0148128 0.0086198 0.0230331 0.0047715 0.0121343 0.0030966 0.0082196 0.0000540 0.0022056 0.0022416 0.0070976 0.0000869 0.0022120 -0.0006439 0.0001909 0.0051128 0.0124563 0.0000270 0.0028041
0.0052616 0.0147983 0.0043337 0.0159029 0.0047845 0.0103613 0.0045781 0.0093670 -0.0051318 0.0045680 0.0035459 0.0112793 -0.0003781 0.0111389 -0.0037129 0.0065803 0.0066243 0.0159661 0.0011640 0.0120847 0.0038343 0.0103687 0.0028967 0.0025688 -0.0025855 0.0143532 0.0085917 0.0227484 0.0046967 0.0117043 0.0030733 0.0079236 0.0000137 0.0018292 0.0021045 0.0064946 0.0000243 0.0019762 -0.0005659 -0.0000287 0.0049977 0.0120476 -0.0000047 0.0025126
0.0054448 0.0146679 0.0043779 0.0158392 0.0046948 0.0101525 0.0045738 0.0086240 -0.0051875 0.0043408 0.0032282 0.0108078 -0.0003221 0.0109931 -0.0036827 0.0065129 0.0065483 0.0157545 0.0011011 0.0117718 0.0038615 0.0102286 0.0027377 0.0025105 -0.0025184 0.0141475 0.0085739 0.0227577 0.0046508 0.0115508 0.0031035 0.0078917 -0.0000048 0.0016433 0.0020590 0.0062018 -0.0000025 0.0018723 -0.0005196 -0.0001053 0.0049262 0.0118411 -0.0000085 0.0024297
0.0054768 0.0145096 0.0043784 0.0158071 0.0046971 0.0100904 0.0045720 0.0085747 -0.0051674 0.0043518 0.0031094 0.0107163 -0.0003705 0.0109838 -0.0036948 0.0064972 0.0065153 0.0157020 0.0011397 0.0117049 0.0038544 0.0101525 0.0027004 0.0024474 -0.0024856 0.0140834 0.0085177 0.0224906 0.0046524 0.0115489 0.0031323 0.0079609 0.0000096 0.0016350 0.0020769 0.0061310 -0.0000179 0.0017920 -0.0005078 -0.0001658 0.0049158 0.0118229 -0.0000031 0.0024082
0.0054361 0.0143680 0.0043595 0.0156719 0.0046806 0.0100449 0.0044549 0.0087291 -0.0051079 0.0043852 0.0030250 0.0106728 -0.0003256 0.0108912 -0.0036979 0.0064465 0.0064982 0.0156672 0.0011746 0.0117396 0.0038563 0.0101173 0.0026474 0.0024204 -0.0024587 0.0140629 0.0084739 0.0222598 0.0046605 0.0116378 0.0031346 0.0080714 0.0000148 0.0016721 0.0020934 0.0061030 -0.0000352 0.0017272 -0.0005036 -0.0001830 0.0049240 0.0117668 -0.0000047 0.0024034
0.0053587 0.0141861 0.0042891 0.0155802 0.0045180 0.0099779 0.0044971 0.0085801 -0.0050240 0.0043627 0.0030245 0.0106065 -0.0003579 0.0108676 -0.0036431 0.0063757 0.0064812 0.0155983 0.0011828 0.0119080 0.0038579 0.0100218 0.0025949 0.0024170 -0.0023961 0.0140181 0.0084485 0.0220465 0.0046780 0.0116553 0.0031322 0.0079594 0.0000276 0.0015178 0.0021201 0.0060014 -0.0000356 0.0015724 -0.0004922 -0.0003295 0.0049027 0.0116533 0.0000029 0.0022818
0.0052658 0.0139913 0.0042317 0.0154133 0.0044173 0.0098683 0.0044395 0.0084540 -0.0049347 0.0042567 0.0029677 0.0105713 -0.0004080 0.0108598 -0.0036199 0.0062994 0.0064450 0.0154539 0.0011905 0.0119129 0.0038424 0.0098357 0.0025970 0.0023720 -0.0023556 0.0139300 0.0084050 0.0218304 0.0046840 0.0115219 0.0031293 0.0077092 0.0000460 0.0012783 0.0021528 0.0058420 -0.0000361 0.0013992 -0.0004700 -0.0005523 0.0048925 0.0114887 0.0000205 0.0021121
0.0052038 0.0137856 0.0042406 0.0151375 0.0043544 0.0097058 0.0042546 0.0084409 -0.0048658 0.0040846 0.0029842 0.0105684 -0.0003169 0.0107219 -0.0035717 0.0061912 0.0064132 0.0153226 0.0012099 0.0119013 0.0038246 0.0096967 0.0026299 0.0023916 -0.0022939 0.0138885 0.0084014 0.0216977 0.0046578 0.0114308 0.0031225 0.0076034 0.0000674 0.0011917 0.0021910 0.0057796 -0.0000370 0.0013223 -0.0004591 -0.0006494 0.0049120 0.0113626 0.0000318 0.0020769
0.0050808 0.0136078 0.0042033 0.0149538 0.0041599 0.0095833 0.0042444 0.0084575 -0.0047970 0.0040265 0.0031405 0.0107496 -0.0002720 0.0106329 -0.0034757 0.0061428 0.0064186 0.0152312 0.0012300 0.0121135 0.0038148 0.0095773 0.0026603 0.0025382 -0.0021826 0.0139176 0.0084016 0.0216290 0.0046705 0.0114159 0.0031184 0.0075690 0.0000997 0.0012139 0.0022458 0.0058380 -0.0000165 0.0013258 -0.0004600 -0.0006702 0.0048984 0.0112651 0.0000566 0.0021382
0.0049620 0.0133797 0.0041222 0.0148531 0.0039730 0.0094220 0.0043138 0.0084273 -0.0047875 0.0040357 0.0033940 0.0110288 -0.0003528 0.0106697 -0.0033988 0.0061495 0.0064165 0.0151183 0.0012437 0.0122140 0.0037679 0.0094509 0.0027155 0.0027593 -0.0020818 0.0139232 0.0083728 0.0214636 0.0046761 0.0113950 0.0031129 0.0075369 0.0001417 0.0013096 0.0023024 0.0059255 0.0000240 0.0013900 -0.0004729 -0.0006877 0.0048336 0.0111532 0.0000883 0.0022144
0.0049146 0.0132059 0.0040933 0.0148067 0.0038598 0.0092632 0.0042336 0.0083852 -0.0047668 0.0039790 0.0035520 0.0112102 -0.0003845 0.0106606 -0.0033286 0.0061089 0.0063910 0.0149815 0.0012931 0.0121801 0.0037505 0.0092821 0.0027711 0.0029054 -0.0020078 0.0138977 0.0083519 0.0213407 0.0046483 0.0112912 0.0030937 0.0073316 0.0001791 0.0012240 0.0023428 0.0059353 0.0000666 0.0013179 -0.0004718 -0.0008213 0.0047947 0.0109670 0.0001146 0.0021538
0.0048696 0.0130356 0.0040784 0.0146193 0.0037206 0.0091909 0.0040926 0.0082995 -0.0047121 0.0038249 0.0035856 0.0113249 -0.0003382 0.0105658 -0.0032395 0.0061349 0.0063874 0.0148354 0.0014166 0.0122228 0.0037686 0.0090565 0.0028096 0.0030428 -0.0019142 0.0138846 0.0083566 0.0213069 0.0046330 0.0111274 0.0030734 0.0070154 0.0002126 0.0010074 0.0023993 0.0059132 0.0001058 0.0011816 -0.0004675 -0.0009983 0.0047549 0.0107193 0.0001386 0.0020582
0.0048208 0.0125435 0.0039993 0.0142729 0.0034904 0.0090455 0.0040551 0.0080455 -0.0046838 0.0036436 0.0036666 0.0113479 -0.0001418 0.0103265 -0.0032454 0.0063227 0.0063906 0.0146914 0.0014646 0.0123653 0.0037398 0.0088361 0.0028694 0.0032454 -0.0017786 0.0139252 0.0083926 0.0213273 0.0045842 0.0110487 0.0030516 0.0068228 0.0002445 0.0008923 0.0024453 0.0059052 0.0001426 0.0011428 -0.0004635 -0.0010510 0.0046567 0.0105319 0.0001522 0.0020801
0.0048750 0.0113934 0.0038605 0.0138228 0.0031940 0.0088759 0.0039836 0.0076897 -0.0046517 0.0035502 0.0037194 0.0113133 0.0000301 0.0101140 -0.0032829 0.0064383 0.0063481 0.0145401 0.0013846 0.0125427 0.0036815 0.0086448 0.0028450 0.0034869 -0.0016498 0.0139671 0.0083992 0.0212601 0.0045239 0.0110392 0.0030438 0.0067366 0.0002722 0.0008694 0.0024759 0.0059437 0.0001943 0.0011598 -0.0004533 -0.0010397 0.0046009 0.0104243 0.0001743 0.0021718
0.0049912 0.0101983 0.0037375 0.0134579 0.0029822 0.0086986 0.0039697 0.0073298 -0.0046438 0.0035305 0.0037872 0.0111915 0.0001462 0.0099547 -0.0033281 0.0064737 0.0063030 0.0144068 0.0013648 0.0126848 0.0036405 0.0085370 0.0028059 0.0036430 -0.0015468 0.0139817 0.0084009 0.0210755 0.0044746 0.0110768 0.0030272 0.0067328 0.0002833 0.0009273 0.0025141 0.0060346 0.0002391 0.0011734 -0.0004453 -0.0009745 0.0045863 0.0103191 0.0001983 0.0022784
0.0049969 0.0095534 0.0036104 0.0132143 0.0028851 0.0086166 0.0039300 0.0071231 -0.0046882 0.0035916 0.0038550 0.0110088 0.0002664 0.0097898 -0.0033423 0.0065708 0.0062747 0.0142631 0.0013908 0.0127957 0.0036347 0.0083938 0.0027844 0.0037120 -0.0014917 0.0139525 0.0083760 0.0208950 0.0044618 0.0110428 0.0029970 0.0065662 0.0002911 0.0007965 0.0025437 0.0060161 0.0002687 0.0010337 -0.0004192 -0.0010472 0.0045603 0.0100802 0.0002249 0.0022489
0.0050124 0.0090195 0.0035137 0.0128549 0.0028386 0.0085122 0.0038284 0.0068487 -0.0046629 0.0034365 0.0038472 0.0108849 0.0003763 0.0096269 -0.0032873 0.0065414 0.0062304 0.0140579 0.0013931 0.0127938 0.0036221 0.0081685 0.0027350 0.0037715 -0.0014608 0.0138313 0.0082804 0.0206526 0.0044707 0.0108383 0.0029891 0.0062459 0.0003135 0.0005393 0.0025771 0.0059093 0.0003120 0.0008308 -0.0003862 -0.0012450 0.0045533 0.0097460 0.0002661 0.0021471
0.0050408 0.0086363 0.0034932 0.0125473 0.0028086 0.0084513 0.0037323 0.0066397 -0.0045883 0.0032078 0.0038550 0.0107737 0.0004816 0.0094694 -0.0032464 0.0064500 0.0061884 0.0138786 0.0013981 0.0127586 0.0035989 0.0080197 0.0027195 0.0038006 -0.0014141 0.0137120 0.0081962 0.0204296 0.0044479 0.0106524 0.0029939 0.0060411 0.0003405 0.0004200 0.0026025 0.0058131 0.0003479 0.0007156 -0.0003506 -0.0013441 0.0045246 0.0095274 0.0002876 0.0021011
0.0049336 0.0084567 0.0034610 0.0123703 0.0027880 0.0083896 0.0036515 0.0064940 -0.0045441 0.0031437 0.0038522 0.0107218 0.0004407 0.0094600 -0.0032532 0.0064228 0.0061265 0.0137751 0.0014259 0.0126711 0.0035850 0.0079447 0.0027020 0.0038260 -0.0013688 0.0136336 0.0081445 0.0202889 0.0044229 0.0105838 0.0029932 0.0059733 0.0003624 0.0004213 0.0026076 0.0057527 0.0003660 0.0006758 -0.0003233 -0.0013545 0.0044910 0.0094628 0.0002854 0.0020892
0.0048251 0.0082952 0.0034281 0.0122447 0.0028015 0.0083235 0.0036562 0.0064044 -0.0045308 0.0031774 0.0038530 0.0107191 0.0003854 0.0094690 -0.0032514 0.0064325 0.0060812 0.0136698 0.0013966 0.0126395 0.0035811 0.0079006 0.0026976 0.0038536 -0.0013512 0.0136101 0.0080854 0.0202212 0.0043974 0.0105766 0.0029785 0.0059971 0.0003753 0.0005022 0.0025996 0.0057368 0.0003767 0.0006847 -0.0003058 -0.0013035 0.0044564 0.0094600 0.0002862 0.0020949
0.0047794 0.0081193 0.0034219 0.0120981 0.0028224 0.0082691 0.0037588 0.0062641 -0.0045076 0.0031831 0.0038380 0.0107010 0.0004122 0.0093967 -0.0032141 0.0063620 0.0060418 0.0135493 0.0013384 0.0125972 0.0035695 0.0077936 0.0026808 0.0038515 -0.0013304 0.0135466 0.0080309 0.0201160 0.0043847 0.0104742 0.0029784 0.0058228 0.0003942 0.0003678 0.0026077 0.0056460 0.0003994 0.0005743 -0.0002769 -0.0014076 0.0044201 0.0093446 0.0002961 0.0019817
0.0047178 0.0079101 0.0033831 0.0119029 0.0028637 0.0081219 0.0036917 0.0061389 -0.0044374 0.0029994 0.0037771 0.0106434 0.0006004 0.0091610 -0.0031643 0.0062050 0.0059943 0.0133899 0.0013241 0.0125017 0.0035562 0.0075977 0.0026508 0.0038233 -0.0012866 0.0133897 0.0079720 0.0199388 0.0043830 0.0102676 0.0029792 0.0055468 0.0004253 0.0001142 0.0026190 0.0054959 0.0004256 0.0004042 -0.0002401 -0.0015936 0.0044027 0.0091687 0.0003022 0.0018405
0.0046789 0.0076475 0.0033279 0.0116969 0.0028805 0.0080285 0.0036038 0.0060271 -0.0043926 0.0028334 0.0037476 0.0105938 0.0007108 0.0090039 -0.0031319 0.0061206 0.0059696 0.0131969 0.0013121 0.0124611 0.0035484 0.0074648 0.0026437 0.0037964 -0.0013642 0.0131447 0.0077645 0.0198070 0.0042997 0.0099720 0.0029726 0.0054256 0.0004507 0.0000308 0.0026195 0.0054053 0.0004497 0.0003198 -0.0002058 -0.0016630 0.0043793 0.0090489 0.0003068 0.0017950
0.0046412 0.0074373 0.0032986 0.0115442 0.0028830 0.0079485 0.0036697 0.0058767 -0.0043652 0.0028163 0.0037590 0.0105182 0.0006695 0.0090008 -0.0031359 0.0060883 0.0059289 0.0130952 0.0012952 0.0123989 0.0035306 0.0074265 0.0026227 0.0037623 -0.0014433 0.0129330 0.0075823 0.0196835 0.0042095 0.0097405 0.0029807 0.0053960 0.0004715 0.0000603 0.0026255 0.0053726 0.0004681 0.0003048 -0.0001839 -0.0016385 0.0043655 0.0089612 0.0003164 0.0017967
0.0045683 0.0073204 0.0032679 0.0114712 0.0028724 0.0078693 0.0035185 0.0058562 -0.0044104 0.0029330 0.0038088 0.0103355 0.0006325 0.0089884 -0.0031433 0.0060546 0.0058954 0.0130342 0.0013228 0.0123121 0.0035109 0.0074312 0.0025834 0.0037444 -0.0014317 0.0128683 0.0075542 0.0195487 0.0041868 0.0096840 0.0029875 0.0054500 0.0004878 0.0001622 0.0026269 0.0053702 0.0004758 0.0003352 -0.0001692 -0.0015520 0.0043283 0.0089478 0.0003206 0.0018206
0.0045563 0.0071377 0.0032370 0.0113765 0.0028866 0.0077278 0.0034053 0.0057253 -0.0044489 0.0029731 0.0037845 0.0102402 0.0007120 0.0088563 -0.0031242 0.0059490 0.0058573 0.0129391 0.0013440 0.0121691 0.0034862 0.0073386 0.0025483 0.0037108 -0.0014276 0.0127803 0.0075090 0.0193865 0.0041630 0.0095147 0.0029953 0.0052732 0.0005090 0.0000116 0.0026430 0.0052775 0.0005048 0.0002164 -0.0001398 -0.0016752 0.0042998 0.0088041 0.0003302 0.0017038
0.0045416 0.0068838 0.0032271 0.0111320 0.0029149 0.0076253 0.0033954 0.0055624 -0.0043910 0.0028242 0.0037192 0.0101124 0.0009289 0.0085949 -0.0031112 0.0058449 0.0057965 0.0127621 0.0013592 0.0120051 0.0034815 0.0070614 0.0024950 0.0036725 -0.0014122 0.0126119 0.0074335 0.0191150 0.0041309 0.0092322 0.0030113 0.0049172 0.0005488 -0.0003180 0.0026719 0.0050946 0.0005564 -0.0000113 -0.0001019 -0.0019348 0.0042986 0.0085738 0.0003497 0.0015215
0.0045000 0.0066531 0.0032310 0.0108538 0.0028910 0.0075949 0.0034306 0.0054334 -0.0043756 0.0027226 0.0036977 0.0099972 0.0009778 0.0084998 -0.0031106 0.0057626 0.0057491 0.0125565 0.0013931 0.0118739 0.0034791 0.0068664 0.0024147 0.0036719 -0.0013984 0.0124682 0.0073871 0.0188703 0.0041215 0.0090398 0.0030293 0.0047401 0.0005799 -0.0004496 0.0026557 0.0049788 0.0005900 -0.0001352 -0.0000636 -0.0020349 0.0042860 0.0084667 0.0003636 0.0014467
0.0044566 0.0065117 0.0032150 0.0107140 0.0028764 0.0075347 0.0034945 0.0052375 -0.0043602 0.0027272 0.0036783 0.0099683 0.0009655 0.0084630 -0.0030801 0.0057001 0.0057341 0.0124248 0.0013385 0.0118094 0.0034701 0.0068442 0.0023797 0.0036488 -0.0013695 0.0123834 0.0073694 0.0187073 0.0041271 0.0089805 0.0030433 0.0047320 0.0006054 -0.0004109 0.0026319 0.0049409 0.0006024 -0.0001465 -0.0000339 -0.0020104 0.0042692 0.0084413 0.0003700 0.0014570
0.0044221 0.0064141 0.0031782 0.0106912 0.0028807 0.0074850 0.0034388 0.0051576 -0.0042769 0.0026795 0.0036503 0.0099089 0.0010076 0.0083824 -0.0030588 0.0056981 0.0057224 0.0123710 0.0013197 0.0117418 0.0034715 0.0068737 0.0024140 0.0035981 -0.0013540 0.0123296 0.0073027 0.0186041 0.0041195 0.0089994 0.0030473 0.0048284 0.0006327 -0.0002736 0.0026308 0.0049540 0.0006157 -0.0000888 -0.0000192 -0.0019108 0.0042517 0.0084704 0.0003712 0.0015352
