-0.0000000 -0.0000000 -0.0000000 -0.0000000 -0.0000000 -0.0000000 -0.0000000 -0.0000000 -0.0000000 -0.0000000 -0.0000000 -0.0000000 -0.0000000 -0.0000000 -0.0000000 -0.0000000 -0.0000000 -0.0000000 -0.0000000 -0.0000000 -0.0000000 -0.0000000 -0.0000000 -0.0000000 -0.0000000 -0.0000000 -0.0000000 -0.0000000 -0.0000000 -0.0000000 -0.0000000 -0.0000000 -0.0000000 -0.0000000 -0.0000000 -0.0000000 -0.0000000 -0.0000000 -0.0000000 -0.0000000 -0.0000000 -0.0000000 -0.0000000 -0.0000000
-0.0000000 -0.0000000 -0.0000000 -0.0000000 -0.0000000 -0.0000000 -0.0000000 -0.0000000 -0.0000000 -0.0000000 -0.0000000 -0.0000000 -0.0000000 -0.0000000 -0.0000000 -0.0000000 -0.0000000 -0.0000000 -0.0000000 -0.0000000 -0.0000000 -0.0000000 -0.0000000 -0.0000000 -0.0000000 -0.0000000 -0.0000000 -0.0000000 -0.0000000 -0.0000000 -0.0000000 -0.0000000 -0.0000000 -0.0000000 -0.0000000 -0.0000000 -0.0000000 -0.0000000 -0.0000000 -0.0000000 -0.0000000 -0.0000000 -0.0000000 -0.0000000
-0.0000000 -0.0000000 -0.0000000 -0.0000000 -0.0000000 -0.0000000 -0.0000000 -0.0000000 -0.0000000 -0.0000000 -0.0000000 -0.0000000 -0.0000000 -0.0000000 -0.0000000 -0.0000000 -0.0000000 -0.0000000 -0.0000000 -0.0000000 -0.0000000 -0.0000000 -0.0000000 -0.0000000 -0.0000000 -0.0000000 -0.0000000 -0.0000000 -0.0000000 -0.0000000 -0.0000000 -0.0000000 -0.0000000 -0.0000000 -0.0000000 -0.0000000 -0.0000000 -0.0000000 -0.0000000 -0.0000000 -0.0000000 -0.0000000 -0.0000000 -0.0000000
-0.0000000 -0.0000000 -0.0000000 -0.0000000 -0.0000000 -0.0000000 -0.0000000 -0.0000000 -0.0000000 -0.0000000 -0.0000000 -0.0000000 -0.0000000 -0.0000000 -0.0000000 -0.0000000 -0.0000000 -0.0000000 -0.0000000 -0.0000000 -0.0000000 -0.0000000 -0.0000000 -0.0000000 -0.0000000 -0.0000000 -0.0000000 -0.0000000 -0.0000000 -0.0000000 -0.0000000 -0.0000000 -0.0000000 -0.0000000 -0.0000000 -0.0000000 -0.0000000 -0.0000000 -0.0000000 -0.0000000 -0.0000000 -0.0000000 -0.0000000 -0.0000000
-0.0000000 -0.0000000 -0.0000000 -0.0000000 -0.0000000 -0.0000000 -0.0000000 -0.0000000 -0.0000000 -0.0000000 -0.0000000 -0.0000000 -0.0000000 -0.0000000 -0.0000000 -0.0000000 -0.0000000 -0.0000000 -0.0000000 -0.0000000 -0.0000000 -0.0000000 -0.0000000 -0.0000000 -0.0000000 -0.0000000 -0.0000000 -0.0000000 -0.0000000 -0.0000000 -0.0000000 -0.0000000 -0.0000000 -0.0000000 -0.0000000 -0.0000000 -0.0000000 -0.0000000 -0.0000000 -0.0000000 -0.0000000 -0.0000000 -0.0000000 -0.0000000
-0.0000000 -0.0000000 -0.0000000 -0.0000000 -0.0000000 -0.0000000 -0.0000000 -0.0000000 -0.0000000 -0.0000000 -0.0000000 -0.0000000 -0.0000000 -0.0000000 -0.0000000 -0.0000000 -0.0000000 -0.0000000 -0.0000000 -0.0000000 -0.0000000 -0.0000000 -0.0000000 -0.0000000 -0.0000000 -0.0000000 -0.0000000 -0.0000000 -0.0000000 -0.0000000 -0.0000000 -0.0000000 -0.0000000 -0.0000000 -0.0000000 -0.0000000 -0.0000000 -0.0000000 -0.0000000 -0.0000000 -0.0000000 -0.0000000 -0.0000000 -0.0000000
-0.0000000 -0.0000000 -0.0000000 -0.0000000 -0.0000000 -0.0000000 -0.0000000 -0.0000000 -0.0000000 -0.0000000 -0.0000000 -0.0000000 -0.0000000 -0.0000000 -0.0000000 -0.0000000 -0.0000000 -0.0000000 -0.0000000 -0.0000000 -0.0000000 -0.0000000 -0.0000000 -0.0000000 -0.0000000 -0.0000000 -0.0000000 -0.0000000 -0.0000000 -0.0000000 -0.0000000 -0.0000000 -0.0000000 -0.0000000 -0.0000000 -0.0000000 -0.0000000 -0.0000000 -0.0000000 -0.0000000 -0.0000000 -0.0000000 -0.0000000 -0.0000000
-0.0000000 -0.0000000 -0.0000000 -0.0000000 -0.0000000 -0.0000000 -0.0000000 -0.0000000 -0.0000000 -0.0000000 -0.0000000 -0.0000000 -0.0000000 -0.0000000 -0.0000000 -0.0000000 -0.0000000 -0.0000000 -0.0000000 -0.0000000 -0.0000000 -0.0000000 -0.0000000 -0.0000000 -0.0000000 -0.0000000 -0.0000000 -0.0000000 -0.0000000 -0.0000000 -0.0000000 -0.0000000 -0.0000000 -0.0000000 -0.0000000 -0.0000000 -0.0000000 -0.0000000 -0.0000000 -0.0000000 -0.0000000 -0.0000000 -0.0000000 -0.0000000
-0.0000000 -0.0000000 -0.0000000 -0.0000000 -0.0000000 -0.0000000 -0.0000000 -0.0000000 -0.0000000 -0.0000000 -0.0000000 -0.0000000 -0.0000000 -0.0000000 -0.0000000 -0.0000000 -0.0000000 -0.0000000 -0.0000000 -0.0000000 -0.0000000 -0.0000000 -0.0000000 -0.0000000 -0.0000000 -0.0000000 -0.0000000 -0.0000000 -0.0000000 -0.0000000 -0.0000000 -0.0000000 -0.0000000 -0.0000000 -0.0000000 -0.0000000 -0.0000000 -0.0000000 -0.0000000 -0.0000000 -0.0000000 -0.0000000 -0.0000000 -0.0000000
-0.0000000 -0.0000000 -0.0000000 -0.0000000 -0.0000000 -0.0000000 -0.0000000 -0.0000000 -0.0000000 -0.0000000 -0.0000000 -0.0000000 -0.0000000 -0.0000000 -0.0000000 -0.0000000 -0.0000000 -0.0000000 -0.0000000 -0.0000000 -0.0000000 -0.0000000 -0.0000000 -0.0000000 -0.0000000 -0.0000000 -0.0000000 -0.0000000 -0.0000000 -0.0000000 -0.0000000 -0.0000000 -0.0000000 -0.0000000 -0.0000000 -0.0000000 -0.0000000 -0.0000000 -0.0000000 -0.0000000 -0.0000000 -0.0000000 -0.0000000 -0.0000000
-0.0000000 -0.0000000 -0.0000000 -0.0000000 -0.0000000 -0.0000000 -0.0000000 -0.0000000 -0.0000000 -0.0000000 -0.0000000 -0.0000000 -0.0000000 -0.0000000 -0.0000000 -0.0000000 -0.0000000 -0.0000000 -0.0000000 -0.0000000 -0.0000000 -0.0000000 -0.0000000 -0.0000000 -0.0000000 -0.0000000 -0.0000000 -0.0000000 -0.0000000 -0.0000000 -0.0000000 -0.0000000 -0.0000000 -0.0000000 -0.0000000 -0.0000000 -0.0000000 -0.0000000 -0.0000000 -0.0000000 -0.0000000 -0.0000000 -0.0000000 -0.0000000
-0.0000000 -0.0000000 -0.0000000 -0.0000000 -0.0000000 -0.0000000 -0.0000000 -0.0000000 -0.0000000 -0.0000000 -0.0000000 -0.0000000 -0.0000000 -0.0000000 -0.0000000 -0.0000000 -0.0000000 -0.0000000 -0.0000000 -0.0000000 -0.0000000 -0.0000000 -0.0000000 -0.0000000 -0.0000000 -0.0000000 -0.0000000 -0.0000000 -0.0000000 -0.0000000 -0.0000000 -0.0000000 -0.0000000 -0.0000000 -0.0000000 -0.0000000 -0.0000000 -0.0000000 -0.0000000 -0.0000000 -0.0000000 -0.0000000 -0.0000000 -0.0000000
-0.0000000 -0.0000000 -0.0000000 -0.0000000 -0.0000000 -0.0000000 -0.0000000 -0.0000000 -0.0000000 -0.0000000 -0.0000000 -0.0000000 -0.0000000 -0.0000000 -0.0000000 -0.0000000 -0.0000000 -0.0000000 -0.0000000 -0.0000000 -0.0000000 -0.0000000 -0.0000000 -0.0000000 -0.0000000 -0.0000000 -0.0000000 -0.0000000 -0.0000000 -0.0000000 -0.0000000 -0.0000000 -0.0000000 -0.0000000 -0.0000000 -0.0000000 -0.0000000 -0.0000000 -0.0000000 -0.0000000 -0.0000000 -0.0000000 -0.0000000 -0.0000000
-0.0000000 -0.0000000 -0.0000000 -0.0000000 -0.0000000 -0.0000000 -0.0000000 -0.0000000 -0.0000000 -0.0000000 -0.0000000 -0.0000000 -0.0000000 -0.0000000 -0.0000000 -0.0000000 -0.0000000 -0.0000000 -0.0000000 -0.0000000 -0.0000000 -0.0000000 -0.0000000 -0.0000000 -0.0000000 -0.0000000 -0.0000000 -0.0000000 -0.0000000 -0.0000000 -0.0000000 -0.0000000 -0.0000000 -0.0000000 -0.0000000 -0.0000000 -0.0000000 -0.0000000 -0.0000000 -0.0000000 -0.0000000 -0.0000000 -0.0000000 -0.0000000
-0.0000000 -0.0000000 -0.0000000 -0.0000000 -0.0000000 -0.0000000 -0.0000000 -0.0000000 -0.0000000 -0.0000000 -0.0000000 -0.0000000 -0.0000000 -0.0000000 -0.0000000 -0.0000000 -0.0000000 -0.0000000 -0.0000000 -0.0000000 -0.0000000 -0.0000000 -0.0000000 -0.0000000 -0.0000000 -0.0000000 -0.0000000 -0.0000000 -0.0000000 -0.0000000 -0.0000000 -0.0000000 -0.0000000 -0.0000000 -0.0000000 -0.0000000 -0.0000000 -0.0000000 -0.0000000 -0.0000000 -0.0000000 -0.0000000 -0.0000000 -0.0000000
-0.0000000 -0.0000000 -0.0000000 -0.0000000 -0.0000000 -0.0000000 -0.0000000 -0.0000000 -0.0000000 -0.0000000 -0.0000000 -0.0000000 -0.0000000 -0.0000000 -0.0000000 -0.0000000 -0.0000000 -0.0000000 -0.0000000 -0.0000000 -0.0000000 -0.0000000 -0.0000000 -0.0000000 -0.0000000 -0.0000000 -0.0000000 -0.0000000 -0.0000000 -0.0000000 -0.0000000 -0.0000000 -0.0000000 -0.0000000 -0.0000000 -0.0000000 -0.0000000 -0.0000000 -0.0000000 -0.0000000 -0.0000000 -0.0000000 -0.0000000 -0.0000000
-0.0000000 -0.0000000 -0.0000000 -0.0000000 -0.0000000 -0.0000000 -0.0000000 -0.0000000 -0.0000000 -0.0000000 -0.0000000 -0.0000000 -0.0000000 -0.0000000 -0.0000000 -0.0000000 -0.0000000 -0.0000000 -0.0000000 -0.0000000 -0.0000000 -0.0000000 -0.0000000 -0.0000000 -0.0000000 -0.0000000 -0.0000000 -0.0000000 -0.0000000 -0.0000000 -0.0000000 -0.0000000 -0.0000000 -0.0000000 -0.0000000 -0.0000000 -0.0000000 -0.0000000 -0.0000000 -0.0000000 -0.0000000 -0.0000000 -0.0000000 -0.0000000
-0.0000000 -0.0000000 -0.0000000 -0.0000000 -0.0000000 -0.0000000 -0.0000000 -0.0000000 -0.0000000 -0.0000000 -0.0000000 -0.0000000 -0.0000000 -0.0000000 -0.0000000 -0.0000000 -0.0000000 -0.0000000 -0.0000000 -0.0000000 -0.0000000 -0.0000000 -0.0000000 -0.0000000 -0.0000000 -0.0000000 -0.0000000 -0.0000000 -0.0000000 -0.0000000 -0.0000000 -0.0000000 -0.0000000 -0.0000000 -0.0000000 -0.0000000 -0.0000000 -0.0000000 -0.0000000 -0.0000000 -0.0000000 -0.0000000 -0.0000000 -0.0000000
-0.0000000 -0.0000000 -0.0000000 -0.0000000 -0.0000000 -0.0000000 -0.0000000 -0.0000000 -0.0000000 -0.0000000 -0.0000000 -0.0000000 -0.0000000 -0.0000000 -0.0000000 -0.0000000 -0.0000000 -0.0000000 -0.0000000 -0.0000000 -0.0000000 -0.0000000 -0.0000000 -0.0000000 -0.0000000 -0.0000000 -0.0000000 -0.0000000 -0.0000000 -0.0000000 -0.0000000 -0.0000000 -0.0000000 -0.0000000 -0.0000000 -0.0000000 -0.0000000 -0.0000000 -0.0000000 -0.0000000 -0.0000000 -0.0000000 -0.0000000 -0.0000000
-0.0000000 -0.0000000 -0.0000000 -0.0000000 -0.0000000 -0.0000000 -0.0000000 -0.0000000 -0.0000000 -0.0000000 -0.0000000 -0.0000000 -0.0000000 -0.0000000 -0.0000000 -0.0000000 -0.0000000 -0.0000000 -0.0000000 -0.0000000 -0.0000000 -0.0000000 -0.0000000 -0.0000000 -0.0000000 -0.0000000 -0.0000000 -0.0000000 -0.0000000 -0.0000000 -0.0000000 -0.0000000 -0.0000000 -0.0000000 -0.0000000 -0.0000000 -0.0000000 -0.0000000 -0.0000000 -0.0000000 -0.0000000 -0.0000000 -0.0000000 -0.0000000
-0.0000031 -0.0000059 0.0000147 -0.0000182 0.0000087 -0.0000082 -0.0000119 0.0000034 -0.0000004 -0.0000049 0.0000760 0.0000518 -0.0000352 0.0000519 0.0000018 -0.0000043 0.0000012 -0.0000049 0.0000017 -0.0000051 0.0000009 -0.0000021 0.0000003 -0.0000054 0.0000010 -0.0000020 0.0000003 -0.0000014 0.0000017 -0.0000029 0.0000025 -0.0000034 0.0000013 -0.0000013 0.0000032 -0.0000041 -0.0000002 -0.0000011 0.0000041 -0.0000054 0.0000013 0.0000002 0.0000016 -0.0000038
-0.0000071 -0.0000106 0.0000098 -0.0000375 0.0000091 -0.0000081 -0.0000016 -0.0000153 0.0000004 -0.0000114 0.0001720 0.0000972 -0.0000781 0.0001149 0.0000013 -0.0000095 0.0000035 -0.0000112 0.0000039 -0.0000115 0.0000026 -0.0000108 0.0000013 -0.0000118 0.0000025 -0.0000057 0.0000003 -0.0000020 0.0000036 -0.0000103 0.0000048 -0.0000100 0.0000026 -0.0000072 0.0000076 -0.0000119 0.0000002 -0.0000103 0.0000080 -0.0000144 0.0000039 -0.0000053 0.0000037 -0.0000141
-0.0000068 -0.0000186 0.0000074 -0.0000180 0.0000069 -0.0000132 -0.0000023 -0.0000254 0.0000003 -0.0000193 0.0002820 0.0001181 -0.0001216 0.0001780 0.0000086 -0.0000212 0.0000058 -0.0000181 0.0000062 -0.0000198 0.0000045 -0.0000262 0.0000051 -0.0000157 0.0000044 -0.0000114 0.0000008 -0.0000028 0.0000062 -0.0000221 0.0000084 -0.0000192 0.0000036 -0.0000181 0.0000133 -0.0000212 0.0000007 -0.0000244 0.0000122 -0.0000264 0.0000061 -0.0000161 0.0000064 -0.0000290
-0.0000053 -0.0000188 0.0000150 -0.0000314 0.0000075 -0.0000216 0.0000004 -0.0000283 0.0000015 -0.0000269 0.0003943 0.0000826 -0.0001546 0.0002251 0.0000088 -0.0000280 0.0000091 -0.0000253 0.0000087 -0.0000293 0.0000075 -0.0000489 0.0000072 -0.0000195 0.0000066 -0.0000199 0.0000010 -0.0000038 0.0000098 -0.0000386 0.0000125 -0.0000319 0.0000049 -0.0000313 0.0000195 -0.0000303 0.0000016 -0.0000401 0.0000175 -0.0000394 0.0000068 -0.0000193 0.0000094 -0.0000386
-0.0000047 -0.0000222 0.0000509 -0.0000549 0.0000052 -0.0000263 -0.0000011 -0.0000344 0.0000016 -0.0000341 0.0005168 0.0000214 -0.0001901 0.0002758 0.0000082 -0.0000310 0.0000126 -0.0000275 0.0000116 -0.0000348 0.0000095 -0.0000471 0.0000096 -0.0000228 0.0000080 -0.0000214 0.0000017 -0.0000021 0.0000123 -0.0000417 0.0000160 -0.0000326 0.0000056 -0.0000296 0.0000245 -0.0000273 0.0000013 -0.0000350 0.0000227 -0.0000384 0.0000063 -0.0000102 0.0000113 -0.0000358
-0.0000079 -0.0000218 0.0000667 -0.0000602 0.0000025 -0.0000214 -0.0000058 -0.0000284 0.0000019 -0.0000366 0.0006345 -0.0000785 -0.0002170 0.0003139 0.0000167 -0.0000401 0.0000147 -0.0000291 0.0000139 -0.0000378 0.0000105 -0.0000405 0.0000116 -0.0000241 0.0000090 -0.0000201 0.0000025 0.0000013 0.0000149 -0.0000409 0.0000182 -0.0000291 0.0000065 -0.0000259 0.0000275 -0.0000261 0.0000014 -0.0000292 0.0000266 -0.0000361 0.0000068 -0.0000007 0.0000133 -0.0000338
-0.0000079 -0.0000242 0.0000426 -0.0000394 0.0000073 -0.0000244 -0.0000014 -0.0000338 0.0000017 -0.0000375 0.0007658 -0.0001856 -0.0002536 0.0003656 0.0000137 -0.0000387 0.0000154 -0.0000311 0.0000159 -0.0000409 0.0000118 -0.0000379 0.0000145 -0.0000286 0.0000095 -0.0000190 0.0000033 0.0000049 0.0000168 -0.0000419 0.0000209 -0.0000283 0.0000074 -0.0000237 0.0000290 -0.0000282 0.0000016 -0.0000248 0.0000294 -0.0000357 0.0000075 0.0000078 0.0000147 -0.0000327
-0.0000085 -0.0000254 0.0000650 -0.0000714 0.0000073 -0.0000245 -0.0000002 -0.0000427 0.0000009 -0.0000395 0.0009192 -0.0002912 -0.0003066 0.0004405 0.0000159 -0.0000440 0.0000165 -0.0000339 0.0000173 -0.0000436 0.0000124 -0.0000390 0.0000170 -0.0000338 0.0000103 -0.0000195 0.0000042 0.0000082 0.0000180 -0.0000447 0.0000229 -0.0000300 0.0000082 -0.0000255 0.0000308 -0.0000336 0.0000021 -0.0000274 0.0000323 -0.0000392 0.0000088 0.0000105 0.0000162 -0.0000366
-0.0000083 -0.0000269 0.0000729 -0.0000657 0.0000021 -0.0000179 0.0000006 -0.0000486 0.0000008 -0.0000419 0.0010758 -0.0004057 -0.0003551 0.0005090 0.0000186 -0.0000507 0.0000182 -0.0000372 0.0000189 -0.0000475 0.0000144 -0.0000474 0.0000198 -0.0000389 0.0000114 -0.0000215 0.0000051 0.0000112 0.0000199 -0.0000514 0.0000256 -0.0000336 0.0000086 -0.0000302 0.0000331 -0.0000392 0.0000028 -0.0000349 0.0000351 -0.0000449 0.0000093 0.0000102 0.0000178 -0.0000449
-0.0000071 -0.0000272 0.0000500 -0.0000665 0.0000033 -0.0000249 -0.0000105 -0.0000476 0.0000007 -0.0000462 0.0012448 -0.0005245 -0.0004190 0.0005994 0.0000172 -0.0000519 0.0000201 -0.0000405 0.0000214 -0.0000532 0.0000165 -0.0000598 0.0000205 -0.0000450 0.0000126 -0.0000250 0.0000060 0.0000130 0.0000215 -0.0000607 0.0000287 -0.0000396 0.0000090 -0.0000387 0.0000371 -0.0000455 0.0000040 -0.0000477 0.0000382 -0.0000530 0.0000101 0.0000052 0.0000198 -0.0000570
-0.0000039 -0.0000292 0.0000376 -0.0000636 0.0000088 -0.0000336 -0.0000145 -0.0000497 0.0000007 -0.0000512 0.0014227 -0.0006455 -0.0004818 0.0006877 0.0000165 -0.0000543 0.0000232 -0.0000433 0.0000239 -0.0000580 0.0000187 -0.0000644 0.0000197 -0.0000493 0.0000136 -0.0000262 0.0000068 0.0000154 0.0000230 -0.0000645 0.0000313 -0.0000383 0.0000095 -0.0000356 0.0000396 -0.0000424 0.0000047 -0.0000370 0.0000415 -0.0000473 0.0000096 0.0000215 0.0000206 -0.0000481
-0.0000069 -0.0000271 0.0000219 -0.0000464 0.0000078 -0.0000289 -0.0000255 -0.0000440 0.0000004 -0.0000510 0.0015905 -0.0007858 -0.0005444 0.0007760 0.0000181 -0.0000497 0.0000248 -0.0000419 0.0000260 -0.0000577 0.0000181 -0.0000494 0.0000221 -0.0000542 0.0000141 -0.0000213 0.0000079 0.0000195 0.0000249 -0.0000592 0.0000330 -0.0000305 0.0000100 -0.0000280 0.0000407 -0.0000378 0.0000048 -0.0000233 0.0000441 -0.0000374 0.0000100 0.0000381 0.0000207 -0.0000379
-0.0000057 -0.0000288 0.0000313 -0.0000628 0.0000038 -0.0000171 -0.0000271 -0.0000509 -0.0000030 -0.0000472 0.0017667 -0.0009135 -0.0006239 0.0008875 0.0000205 -0.0000459 0.0000250 -0.0000417 0.0000266 -0.0000557 0.0000180 -0.0000389 0.0000235 -0.0000618 0.0000140 -0.0000165 0.0000087 0.0000242 0.0000245 -0.0000529 0.0000334 -0.0000237 0.0000105 -0.0000211 0.0000394 -0.0000385 0.0000053 -0.0000130 0.0000447 -0.0000302 0.0000078 0.0000538 0.0000209 -0.0000314
-0.0000101 -0.0000283 0.0000255 -0.0000515 0.0000049 -0.0000093 -0.0000232 -0.0000587 -0.0000036 -0.0000455 0.0019463 -0.0010605 -0.0006913 0.0009816 0.0000146 -0.0000368 0.0000248 -0.0000415 0.0000277 -0.0000542 0.0000171 -0.0000308 0.0000255 -0.0000631 0.0000137 -0.0000113 0.0000100 0.0000300 0.0000239 -0.0000475 0.0000329 -0.0000194 0.0000106 -0.0000155 0.0000375 -0.0000400 0.0000059 -0.0000063 0.0000446 -0.0000260 0.0000077 0.0000628 0.0000214 -0.0000278
-0.0000112 -0.0000283 0.0000228 -0.0000443 0.0000037 -0.0000085 -0.0000183 -0.0000579 -0.0000052 -0.0000432 0.0021208 -0.0012211 -0.0007514 0.0010654 0.0000120 -0.0000346 0.0000238 -0.0000411 0.0000291 -0.0000530 0.0000165 -0.0000310 0.0000272 -0.0000652 0.0000137 -0.0000074 0.0000107 0.0000349 0.0000230 -0.0000441 0.0000322 -0.0000181 0.0000102 -0.0000137 0.0000363 -0.0000433 0.0000066 -0.0000053 0.0000439 -0.0000246 0.0000080 0.0000682 0.0000216 -0.0000269
-0.0000106 -0.0000285 0.0000055 -0.0000376 0.0000059 -0.0000097 -0.0000147 -0.0000595 -0.0000069 -0.0000403 0.0022887 -0.0013993 -0.0008034 0.0011376 0.0000118 -0.0000301 0.0000236 -0.0000416 0.0000300 -0.0000525 0.0000162 -0.0000347 0.0000308 -0.0000669 0.0000140 -0.0000045 0.0000114 0.0000391 0.0000218 -0.0000416 0.0000314 -0.0000188 0.0000097 -0.0000145 0.0000362 -0.0000457 0.0000077 -0.0000082 0.0000431 -0.0000238 0.0000082 0.0000702 0.0000215 -0.0000280
-0.0000101 -0.0000275 -0.0000160 -0.0000119 0.0000072 -0.0000112 -0.0000108 -0.0000595 -0.0000088 -0.0000367 0.0024531 -0.0015883 -0.0008538 0.0012073 0.0000152 -0.0000318 0.0000242 -0.0000419 0.0000311 -0.0000526 0.0000159 -0.0000413 0.0000340 -0.0000680 0.0000145 -0.0000033 0.0000119 0.0000416 0.0000219 -0.0000414 0.0000312 -0.0000215 0.0000092 -0.0000184 0.0000377 -0.0000478 0.0000087 -0.0000156 0.0000439 -0.0000268 0.0000088 0.0000674 0.0000221 -0.0000327
-0.0000115 -0.0000255 -0.0000106 -0.0000290 0.0000028 -0.0000087 -0.0000114 -0.0000475 -0.0000084 -0.0000360 0.0026084 -0.0017926 -0.0008982 0.0012688 0.0000200 -0.0000409 0.0000248 -0.0000416 0.0000331 -0.0000532 0.0000148 -0.0000408 0.0000354 -0.0000706 0.0000143 0.0000007 0.0000121 0.0000442 0.0000219 -0.0000363 0.0000301 -0.0000180 0.0000090 -0.0000141 0.0000380 -0.0000412 0.0000091 -0.0000066 0.0000434 -0.0000188 0.0000062 0.0000792 0.0000219 -0.0000242
-0.0000120 -0.0000259 -0.0000171 -0.0000300 0.0000019 0.0000008 -0.0000030 -0.0000462 -0.0000080 -0.0000310 0.0026955 -0.0019320 -0.0009148 0.0012914 0.0000188 -0.0000391 0.0000238 -0.0000388 0.0000340 -0.0000503 0.0000133 -0.0000313 0.0000364 -0.0000697 0.0000142 0.0000078 0.0000120 0.0000474 0.0000210 -0.0000250 0.0000285 -0.0000112 0.0000088 -0.0000067 0.0000369 -0.0000346 0.0000093 0.0000054 0.0000422 -0.0000086 0.0000029 0.0000925 0.0000214 -0.0000118
-0.0000110 -0.0000264 -0.0000251 -0.0000262 0.0000009 0.0000105 -0.0000041 -0.0000326 -0.0000075 -0.0000217 0.0027201 -0.0019743 -0.0009197 0.0012976 0.0000206 -0.0000393 0.0000223 -0.0000362 0.0000339 -0.0000455 0.0000111 -0.0000210 0.0000375 -0.0000662 0.0000138 0.0000155 0.0000120 0.0000504 0.0000203 -0.0000115 0.0000253 -0.0000036 0.0000083 0.0000013 0.0000336 -0.0000294 0.0000093 0.0000169 0.0000400 0.0000002 -0.0000002 0.0001051 0.0000201 0.0000003
-0.0000110 -0.0000268 -0.0000267 -0.0000232 0.0000096 0.0000097 -0.0000203 -0.0000134 -0.0000077 -0.0000115 0.0027205 -0.0019808 -0.0009193 0.0012967 0.0000138 -0.0000270 0.0000200 -0.0000335 0.0000339 -0.0000404 0.0000082 -0.0000113 0.0000357 -0.0000613 0.0000131 0.0000237 0.0000113 0.0000532 0.0000180 0.0000027 0.0000222 0.0000026 0.0000074 0.0000083 0.0000301 -0.0000254 0.0000093 0.0000251 0.0000370 0.0000065 -0.0000029 0.0001135 0.0000195 0.0000089
-0.0000115 -0.0000272 -0.0000338 -0.0000158 0.0000151 0.0000087 -0.0000212 0.0000002 -0.0000068 -0.0000015 0.0027106 -0.0019754 -0.0009049 0.0012762 0.0000070 -0.0000162 0.0000176 -0.0000311 0.0000337 -0.0000352 0.0000063 -0.0000070 0.0000332 -0.0000533 0.0000128 0.0000305 0.0000107 0.0000557 0.0000157 0.0000154 0.0000192 0.0000064 0.0000064 0.0000129 0.0000270 -0.0000220 0.0000096 0.0000302 0.0000334 0.0000106 -0.0000058 0.0001188 0.0000184 0.0000155
-0.0000102 -0.0000284 -0.0000498 -0.0000192 0.0000185 0.0000096 -0.0000221 0.0000119 -0.0000048 0.0000065 0.0026971 -0.0019659 -0.0008826 0.0012447 0.0000103 -0.0000142 0.0000153 -0.0000285 0.0000334 -0.0000301 0.0000047 -0.0000059 0.0000335 -0.0000502 0.0000125 0.0000366 0.0000101 0.0000569 0.0000135 0.0000259 0.0000162 0.0000099 0.0000050 0.0000160 0.0000243 -0.0000179 0.0000097 0.0000323 0.0000302 0.0000142 -0.0000064 0.0001175 0.0000174 0.0000198
-0.0000127 -0.0000250 -0.0000459 -0.0000194 0.0000156 0.0000115 -0.0000176 0.0000204 -0.0000040 0.0000149 0.0026705 -0.0019459 -0.0008565 0.0012080 0.0000054 -0.0000069 0.0000143 -0.0000270 0.0000329 -0.0000261 0.0000031 -0.0000079 0.0000326 -0.0000475 0.0000118 0.0000415 0.0000092 0.0000570 0.0000115 0.0000348 0.0000134 0.0000121 0.0000039 0.0000166 0.0000230 -0.0000157 0.0000101 0.0000306 0.0000276 0.0000144 -0.0000082 0.0001137 0.0000168 0.0000220
-0.0000126 -0.0000244 -0.0000301 -0.0000279 0.0000184 0.0000120 -0.0000091 0.0000270 -0.0000023 0.0000214 0.0026277 -0.0019133 -0.0008241 0.0011625 0.0000093 -0.0000137 0.0000135 -0.0000269 0.0000327 -0.0000239 0.0000016 -0.0000185 0.0000322 -0.0000464 0.0000115 0.0000431 0.0000080 0.0000555 0.0000100 0.0000388 0.0000111 0.0000118 0.0000028 0.0000158 0.0000215 -0.0000133 0.0000102 0.0000311 0.0000253 0.0000156 -0.0000119 0.0001178 0.0000166 0.0000279
-0.0000123 -0.0000224 -0.0000510 -0.0000127 0.0000176 0.0000167 -0.0000031 0.0000332 -0.0000022 0.0000292 0.0025620 -0.0018660 -0.0007831 0.0011052 0.0000048 -0.0000076 0.0000122 -0.0000224 0.0000326 -0.0000190 -0.0000003 -0.0000138 0.0000308 -0.0000429 0.0000111 0.0000487 0.0000071 0.0000552 0.0000075 0.0000498 0.0000084 0.0000177 0.0000013 0.0000215 0.0000198 -0.0000052 0.0000101 0.0000390 0.0000233 0.0000216 -0.0000152 0.0001239 0.0000158 0.0000373
-0.0000113 -0.0000220 -0.0000595 -0.0000011 0.0000209 0.0000232 0.0000102 0.0000326 -0.0000009 0.0000364 0.0024933 -0.0018234 -0.0007360 0.0010393 0.0000048 -0.0000069 0.0000103 -0.0000171 0.0000328 -0.0000135 -0.0000015 -0.0000052 0.0000304 -0.0000402 0.0000104 0.0000555 0.0000063 0.0000552 0.0000039 0.0000634 0.0000049 0.0000250 -0.0000002 0.0000281 0.0000182 0.0000029 0.0000096 0.0000474 0.0000199 0.0000293 -0.0000170 0.0001274 0.0000147 0.0000468
-0.0000116 -0.0000215 -0.0000559 0.0000071 0.0000173 0.0000262 -0.0000049 0.0000561 0.0000013 0.0000427 0.0024307 -0.0017858 -0.0006803 0.0009613 0.0000011 -0.0000005 0.0000082 -0.0000127 0.0000330 -0.0000080 -0.0000043 0.0000030 0.0000294 -0.0000348 0.0000104 0.0000625 0.0000054 0.0000559 0.0000015 0.0000758 0.0000007 0.0000322 -0.0000013 0.0000345 0.0000159 0.0000096 0.0000088 0.0000563 0.0000159 0.0000362 -0.0000203 0.0001323 0.0000138 0.0000554
-0.0000133 -0.0000219 -0.0000591 0.0000075 0.0000162 0.0000314 0.0000030 0.0000579 0.0000060 0.0000472 0.0023682 -0.0017501 -0.0006379 0.0009018 0.0000017 0.0000030 0.0000063 -0.0000088 0.0000327 -0.0000025 -0.0000068 0.0000079 0.0000283 -0.0000302 0.0000100 0.0000691 0.0000044 0.0000572 -0.0000015 0.0000871 -0.0000034 0.0000368 -0.0000026 0.0000393 0.0000140 0.0000145 0.0000082 0.0000611 0.0000115 0.0000409 -0.0000223 0.0001332 0.0000128 0.0000623
-0.0000145 -0.0000212 -0.0000535 0.0000099 0.0000121 0.0000418 0.0000054 0.0000660 0.0000068 0.0000546 0.0023021 -0.0017077 -0.0006015 0.0008506 0.0000042 0.0000040 0.0000046 -0.0000051 0.0000317 0.0000029 -0.0000093 0.0000093 0.0000284 -0.0000238 0.0000098 0.0000746 0.0000036 0.0000590 -0.0000050 0.0000978 -0.0000068 0.0000394 -0.0000036 0.0000418 0.0000123 0.0000193 0.0000074 0.0000635 0.0000081 0.0000436 -0.0000246 0.0001323 0.0000119 0.0000662
-0.0000156 -0.0000213 -0.0000370 -0.0000003 0.0000138 0.0000446 0.0000016 0.0000799 0.0000088 0.0000600 0.0022370 -0.0016614 -0.0005561 0.0007870 0.0000032 0.0000059 0.0000030 -0.0000019 0.0000315 0.0000076 -0.0000111 0.0000081 0.0000274 -0.0000197 0.0000092 0.0000799 0.0000028 0.0000610 -0.0000087 0.0001066 -0.0000102 0.0000406 -0.0000046 0.0000425 0.0000113 0.0000234 0.0000066 0.0000630 0.0000058 0.0000437 -0.0000257 0.0001283 0.0000111 0.0000674
-0.0000148 -0.0000242 -0.0000044 -0.0000244 0.0000125 0.0000441 0.0000066 0.0000841 0.0000108 0.0000647 0.0021839 -0.0016222 -0.0005219 0.0007388 0.0000027 0.0000080 0.0000021 0.0000006 0.0000310 0.0000122 -0.0000123 0.0000084 0.0000260 -0.0000178 0.0000087 0.0000852 0.0000021 0.0000640 -0.0000131 0.0001159 -0.0000136 0.0000437 -0.0000054 0.0000467 0.0000098 0.0000294 0.0000057 0.0000692 0.0000028 0.0000487 -0.0000284 0.0001341 0.0000101 0.0000737
-0.0000162 -0.0000247 0.0000027 -0.0000007 0.0000107 0.0000479 0.0000055 0.0000931 0.0000140 0.0000696 0.0021376 -0.0016154 -0.0004680 0.0006630 -0.0000005 0.0000128 -0.0000002 0.0000039 0.0000303 0.0000176 -0.0000141 0.0000139 0.0000264 -0.0000115 0.0000084 0.0000912 0.0000016 0.0000672 -0.0000163 0.0001261 -0.0000171 0.0000487 -0.0000065 0.0000508 0.0000080 0.0000349 0.0000044 0.0000766 0.0000010 0.0000527 -0.0000283 0.0001364 0.0000091 0.0000810
-0.0000137 -0.0000268 -0.0000044 0.0000003 0.0000108 0.0000494 0.0000092 0.0000957 0.0000146 0.0000759 0.0020856 -0.0015821 -0.0004311 0.0006111 -0.0000009 0.0000161 -0.0000021 0.0000059 0.0000296 0.0000225 -0.0000157 0.0000172 0.0000262 -0.0000095 0.0000083 0.0000959 0.0000012 0.0000691 -0.0000196 0.0001354 -0.0000199 0.0000522 -0.0000078 0.0000547 0.0000064 0.0000386 0.0000034 0.0000816 -0.0000019 0.0000556 -0.0000287 0.0001379 0.0000080 0.0000872
-0.0000147 -0.0000259 0.0000080 -0.0000121 0.0000069 0.0000607 0.0000040 0.0001015 0.0000163 0.0000811 0.0020333 -0.0015509 -0.0003912 0.0005549 0.0000078 0.0000140 -0.0000034 0.0000075 0.0000289 0.0000271 -0.0000172 0.0000196 0.0000258 -0.0000060 0.0000079 0.0001004 0.0000009 0.0000717 -0.0000226 0.0001423 -0.0000228 0.0000549 -0.0000090 0.0000570 0.0000058 0.0000415 0.0000027 0.0000836 -0.0000042 0.0000568 -0.0000306 0.0001370 0.0000073 0.0000909
-0.0000154 -0.0000235 0.0000168 -0.0000190 -0.0000003 0.0000700 0.0000148 0.0000996 0.0000182 0.0000864 0.0019789 -0.0015199 -0.0003401 0.0004829 0.0000024 0.0000196 -0.0000042 0.0000085 0.0000281 0.0000310 -0.0000187 0.0000184 0.0000248 -0.0000014 0.0000078 0.0001036 0.0000001 0.0000737 -0.0000255 0.0001474 -0.0000254 0.0000554 -0.0000100 0.0000566 0.0000052 0.0000436 0.0000015 0.0000828 -0.0000065 0.0000562 -0.0000322 0.0001341 0.0000065 0.0000914
-0.0000110 -0.0000253 -0.0000066 0.0000118 -0.0000026 0.0000743 0.0000099 0.0001115 0.0000196 0.0000894 0.0019217 -0.0014833 -0.0002871 0.0004082 0.0000028 0.0000194 -0.0000051 0.0000092 0.0000277 0.0000335 -0.0000192 0.0000129 0.0000235 0.0000034 0.0000074 0.0001063 -0.0000005 0.0000755 -0.0000285 0.0001504 -0.0000275 0.0000535 -0.0000111 0.0000542 0.0000059 0.0000436 0.0000004 0.0000789 -0.0000087 0.0000544 -0.0000334 0.0001296 0.0000058 0.0000906
-0.0000113 -0.0000235 0.0000004 0.0000230 0.0000052 0.0000651 -0.0000080 0.0001352 0.0000228 0.0000905 0.0018628 -0.0014437 -0.0002355 0.0003354 0.0000043 0.0000200 -0.0000061 0.0000106 0.0000270 0.0000357 -0.0000192 0.0000054 0.0000232 0.0000090 0.0000075 0.0001081 -0.0000011 0.0000761 -0.0000312 0.0001526 -0.0000297 0.0000529 -0.0000122 0.0000560 0.0000047 0.0000486 -0.0000002 0.0000884 -0.0000102 0.0000586 -0.0000362 0.0001416 0.0000037 0.0001052
-0.0000114 -0.0000225 0.0000118 0.0000208 0.0000035 0.0000726 -0.0000003 0.0001371 0.0000219 0.0000984 0.0018152 -0.0014214 -0.0001900 0.0002710 0.0000109 0.0000228 -0.0000069 0.0000161 0.0000267 0.0000437 -0.0000204 0.0000272 0.0000228 0.0000144 0.0000066 0.0001177 -0.0000016 0.0000782 -0.0000337 0.0001677 -0.0000323 0.0000628 -0.0000132 0.0000655 0.0000038 0.0000588 -0.0000023 0.0001038 -0.0000118 0.0000689 -0.0000387 0.0001513 0.0000019 0.0001167
-0.0000109 -0.0000237 0.0000044 0.0000345 0.0000035 0.0000759 0.0000078 0.0001364 0.0000218 0.0001041 0.0017742 -0.0013956 -0.0001597 0.0002283 0.0000057 0.0000344 -0.0000091 0.0000183 0.0000251 0.0000504 -0.0000220 0.0000375 0.0000228 0.0000175 0.0000057 0.0001255 -0.0000023 0.0000795 -0.0000375 0.0001792 -0.0000343 0.0000671 -0.0000141 0.0000700 0.0000017 0.0000609 -0.0000037 0.0001108 -0.0000143 0.0000736 -0.0000404 0.0001541 0.0000005 0.0001225
-0.0000114 -0.0000242 0.0000247 0.0000043 -0.0000095 0.0000898 0.0000257 0.0001318 0.0000227 0.0001064 0.0017362 -0.0013691 -0.0001261 0.0001806 0.0000054 0.0000368 -0.0000106 0.0000182 0.0000234 0.0000558 -0.0000229 0.0000414 0.0000239 0.0000187 0.0000051 0.0001305 -0.0000035 0.0000803 -0.0000403 0.0001866 -0.0000362 0.0000688 -0.0000150 0.0000725 -0.0000001 0.0000612 -0.0000053 0.0001157 -0.0000175 0.0000768 -0.0000416 0.0001544 -0.0000006 0.0001260
-0.0000138 -0.0000230 0.0000183 0.0000020 -0.0000096 0.0000909 0.0000176 0.0001382 0.0000240 0.0001067 0.0017029 -0.0013471 -0.0000991 0.0001424 -0.0000028 0.0000500 -0.0000116 0.0000176 0.0000223 0.0000595 -0.0000236 0.0000395 0.0000258 0.0000207 0.0000052 0.0001335 -0.0000042 0.0000804 -0.0000422 0.0001892 -0.0000372 0.0000658 -0.0000153 0.0000705 -0.0000004 0.0000601 -0.0000065 0.0001139 -0.0000191 0.0000751 -0.0000438 0.0001516 -0.0000013 0.0001252
-0.0000123 -0.0000239 0.0000223 0.0000078 -0.0000100 0.0000898 0.0000095 0.0001447 0.0000247 0.0001075 0.0016614 -0.0013201 -0.0000662 0.0000956 -0.0000032 0.0000522 -0.0000117 0.0000174 0.0000220 0.0000617 -0.0000239 0.0000341 0.0000256 0.0000246 0.0000051 0.0001355 -0.0000052 0.0000806 -0.0000441 0.0001910 -0.0000380 0.0000617 -0.0000156 0.0000665 0.0000001 0.0000597 -0.0000078 0.0001099 -0.0000206 0.0000723 -0.0000460 0.0001469 -0.0000015 0.0001225
-0.0000113 -0.0000237 -0.0000019 0.0000246 -0.0000049 0.0000825 -0.0000001 0.0001516 0.0000246 0.0001067 0.0016278 -0.0012967 -0.0000423 0.0000618 -0.0000029 0.0000534 -0.0000117 0.0000179 0.0000214 0.0000636 -0.0000243 0.0000276 0.0000246 0.0000268 0.0000053 0.0001365 -0.0000061 0.0000791 -0.0000454 0.0001896 -0.0000380 0.0000565 -0.0000161 0.0000605 0.0000020 0.0000599 -0.0000091 0.0001027 -0.0000212 0.0000683 -0.0000464 0.0001382 -0.0000020 0.0001171
-0.0000106 -0.0000234 0.0000032 0.0000119 -0.0000002 0.0000711 -0.0000045 0.0001564 0.0000237 0.0001068 0.0016037 -0.0012789 -0.0000226 0.0000337 -0.0000027 0.0000581 -0.0000111 0.0000202 0.0000219 0.0000661 -0.0000240 0.0000341 0.0000229 0.0000284 0.0000048 0.0001414 -0.0000073 0.0000779 -0.0000479 0.0001978 -0.0000391 0.0000612 -0.0000163 0.0000683 0.0000015 0.0000723 -0.0000104 0.0001236 -0.0000225 0.0000805 -0.0000478 0.0001530 -0.0000042 0.0001359
-0.0000117 -0.0000239 0.0000082 0.0000112 -0.0000090 0.0000867 0.0000027 0.0001474 0.0000217 0.0001125 0.0015708 -0.0012566 0.0000007 0.0000005 0.0000051 0.0000590 -0.0000116 0.0000255 0.0000214 0.0000750 -0.0000254 0.0000650 0.0000216 0.0000326 0.0000033 0.0001536 -0.0000086 0.0000794 -0.0000509 0.0002185 -0.0000410 0.0000758 -0.0000164 0.0000840 -0.0000001 0.0000871 -0.0000128 0.0001503 -0.0000251 0.0001004 -0.0000506 0.0001697 -0.0000063 0.0001541
-0.0000129 -0.0000253 0.0000307 0.0000134 -0.0000178 0.0000986 0.0000046 0.0001476 0.0000199 0.0001204 0.0015442 -0.0012380 0.0000117 -0.0000151 0.0000061 0.0000647 -0.0000140 0.0000266 0.0000198 0.0000831 -0.0000283 0.0000815 0.0000209 0.0000351 0.0000019 0.0001631 -0.0000100 0.0000802 -0.0000538 0.0002324 -0.0000424 0.0000821 -0.0000165 0.0000913 -0.0000036 0.0000893 -0.0000140 0.0001636 -0.0000274 0.0001093 -0.0000542 0.0001791 -0.0000079 0.0001643
-0.0000133 -0.0000271 0.0000443 -0.0000048 -0.0000133 0.0001015 0.0000177 0.0001309 0.0000188 0.0001263 0.0015149 -0.0012170 0.0000280 -0.0000383 0.0000034 0.0000721 -0.0000158 0.0000258 0.0000180 0.0000901 -0.0000294 0.0000892 0.0000205 0.0000374 0.0000003 0.0001698 -0.0000113 0.0000804 -0.0000576 0.0002427 -0.0000436 0.0000851 -0.0000167 0.0000953 -0.0000069 0.0000890 -0.0000151 0.0001722 -0.0000303 0.0001152 -0.0000555 0.0001815 -0.0000091 0.0001708
-0.0000130 -0.0000271 0.0000484 0.0000087 -0.0000109 0.0001011 0.0000077 0.0001335 0.0000181 0.0001300 0.0014928 -0.0012032 0.0000465 -0.0000647 0.0000052 0.0000735 -0.0000169 0.0000253 0.0000166 0.0000959 -0.0000305 0.0000914 0.0000208 0.0000392 -0.0000011 0.0001754 -0.0000125 0.0000798 -0.0000603 0.0002484 -0.0000440 0.0000835 -0.0000172 0.0000949 -0.0000087 0.0000892 -0.0000159 0.0001736 -0.0000329 0.0001170 -0.0000592 0.0001817 -0.0000101 0.0001722
-0.0000166 -0.0000254 0.0000376 0.0000215 -0.0000160 0.0001036 -0.0000011 0.0001391 0.0000183 0.0001308 0.0014755 -0.0011900 0.0000632 -0.0000885 0.0000040 0.0000733 -0.0000172 0.0000259 0.0000166 0.0001001 -0.0000306 0.0000901 0.0000180 0.0000366 -0.0000022 0.0001787 -0.0000136 0.0000775 -0.0000629 0.0002524 -0.0000436 0.0000817 -0.0000179 0.0000937 -0.0000093 0.0000925 -0.0000167 0.0001738 -0.0000350 0.0001196 -0.0000620 0.0001793 -0.0000107 0.0001719
-0.0000150 -0.0000284 0.0000199 0.0000410 -0.0000179 0.0000983 -0.0000083 0.0001415 0.0000169 0.0001317 0.0014644 -0.0011809 0.0000672 -0.0000942 0.0000095 0.0000679 -0.0000165 0.0000265 0.0000158 0.0001040 -0.0000306 0.0000872 0.0000177 0.0000325 -0.0000029 0.0001816 -0.0000150 0.0000747 -0.0000648 0.0002544 -0.0000434 0.0000793 -0.0000184 0.0000905 -0.0000087 0.0000963 -0.0000175 0.0001710 -0.0000373 0.0001207 -0.0000632 0.0001734 -0.0000115 0.0001694
-0.0000163 -0.0000285 0.0000104 0.0000329 -0.0000153 0.0000935 -0.0000104 0.0001345 0.0000171 0.0001303 0.0014483 -0.0011685 0.0000815 -0.0001145 0.0000053 0.0000727 -0.0000167 0.0000301 0.0000149 0.0001092 -0.0000313 0.0000946 0.0000159 0.0000324 -0.0000039 0.0001872 -0.0000162 0.0000727 -0.0000662 0.0002628 -0.0000441 0.0000855 -0.0000193 0.0001003 -0.0000099 0.0001107 -0.0000191 0.0001952 -0.0000395 0.0001368 -0.0000654 0.0001881 -0.0000136 0.0001887
-0.0000179 -0.0000300 0.0000019 0.0000399 -0.0000143 0.0000988 -0.0000098 0.0001339 0.0000157 0.0001367 0.0014247 -0.0011505 0.0000986 -0.0001389 0.0000122 0.0000753 -0.0000169 0.0000337 0.0000138 0.0001175 -0.0000324 0.0001107 0.0000141 0.0000325 -0.0000059 0.0001963 -0.0000173 0.0000716 -0.0000680 0.0002748 -0.0000447 0.0000937 -0.0000203 0.0001080 -0.0000115 0.0001220 -0.0000209 0.0002112 -0.0000427 0.0001509 -0.0000690 0.0001979 -0.0000154 0.0002014
-0.0000188 -0.0000308 0.0000050 0.0000373 -0.0000214 0.0001070 -0.0000117 0.0001290 0.0000142 0.0001423 0.0013991 -0.0011307 0.0001197 -0.0001691 0.0000111 0.0000775 -0.0000183 0.0000365 0.0000120 0.0001260 -0.0000341 0.0001232 0.0000105 0.0000341 -0.0000077 0.0002044 -0.0000187 0.0000708 -0.0000718 0.0002863 -0.0000458 0.0001000 -0.0000207 0.0001135 -0.0000147 0.0001291 -0.0000223 0.0002235 -0.0000477 0.0001629 -0.0000721 0.0002050 -0.0000175 0.0002116
-0.0000213 -0.0000306 0.0000045 0.0000640 -0.0000237 0.0001108 -0.0000049 0.0001234 0.0000123 0.0001484 0.0013797 -0.0011159 0.0001338 -0.0001892 0.0000044 0.0000843 -0.0000194 0.0000393 0.0000102 0.0001343 -0.0000357 0.0001344 0.0000090 0.0000344 -0.0000086 0.0002115 -0.0000197 0.0000698 -0.0000755 0.0002970 -0.0000465 0.0001043 -0.0000215 0.0001183 -0.0000175 0.0001364 -0.0000241 0.0002333 -0.0000526 0.0001734 -0.0000730 0.0002066 -0.0000187 0.0002174
-0.0000227 -0.0000310 0.0000055 0.0000803 -0.0000234 0.0001128 -0.0000121 0.0001300 0.0000116 0.0001531 0.0013658 -0.0011060 0.0001411 -0.0001996 0.0000088 0.0000839 -0.0000203 0.0000423 0.0000094 0.0001412 -0.0000360 0.0001395 0.0000073 0.0000356 -0.0000099 0.0002178 -0.0000208 0.0000690 -0.0000786 0.0003048 -0.0000472 0.0001069 -0.0000224 0.0001212 -0.0000199 0.0001438 -0.0000252 0.0002402 -0.0000564 0.0001814 -0.0000747 0.0002067 -0.0000198 0.0002211
-0.0000251 -0.0000298 0.0000377 0.0000421 -0.0000218 0.0001128 -0.0000146 0.0001253 0.0000118 0.0001561 0.0013554 -0.0010969 0.0001384 -0.0001957 0.0000020 0.0000905 -0.0000209 0.0000460 0.0000087 0.0001480 -0.0000368 0.0001445 0.0000069 0.0000316 -0.0000110 0.0002232 -0.0000218 0.0000680 -0.0000820 0.0003121 -0.0000477 0.0001099 -0.0000230 0.0001231 -0.0000219 0.0001537 -0.0000266 0.0002461 -0.0000599 0.0001892 -0.0000762 0.0002048 -0.0000208 0.0002226
-0.0000260 -0.0000316 -0.0000038 0.0000700 -0.0000251 0.0001142 0.0000033 0.0000991 0.0000094 0.0001585 0.0013512 -0.0010908 0.0001285 -0.0001817 0.0000004 0.0000943 -0.0000208 0.0000486 0.0000076 0.0001545 -0.0000372 0.0001468 0.0000051 0.0000278 -0.0000124 0.0002279 -0.0000228 0.0000664 -0.0000849 0.0003172 -0.0000475 0.0001114 -0.0000237 0.0001232 -0.0000230 0.0001628 -0.0000282 0.0002491 -0.0000632 0.0001953 -0.0000777 0.0001997 -0.0000208 0.0002216
-0.0000259 -0.0000320 -0.0000374 0.0001004 -0.0000199 0.0001070 0.0000021 0.0000985 0.0000096 0.0001596 0.0013347 -0.0010764 0.0001309 -0.0001852 -0.0000025 0.0000937 -0.0000210 0.0000515 0.0000066 0.0001592 -0.0000369 0.0001422 0.0000042 0.0000252 -0.0000136 0.0002312 -0.0000235 0.0000652 -0.0000881 0.0003185 -0.0000484 0.0001111 -0.0000244 0.0001223 -0.0000237 0.0001710 -0.0000294 0.0002519 -0.0000665 0.0002014 -0.0000787 0.0001983 -0.0000215 0.0002236
-0.0000280 -0.0000306 -0.0000387 0.0001011 -0.0000190 0.0001075 0.0000042 0.0000877 0.0000095 0.0001622 0.0013174 -0.0010607 0.0001374 -0.0001944 0.0000025 0.0000935 -0.0000203 0.0000564 0.0000058 0.0001661 -0.0000372 0.0001476 0.0000013 0.0000239 -0.0000152 0.0002364 -0.0000242 0.0000645 -0.0000915 0.0003235 -0.0000487 0.0001142 -0.0000249 0.0001248 -0.0000238 0.0001858 -0.0000315 0.0002604 -0.0000700 0.0002112 -0.0000784 0.0001967 -0.0000220 0.0002268
-0.0000266 -0.0000331 -0.0000592 0.0001399 -0.0000145 0.0001052 -0.0000057 0.0000840 0.0000082 0.0001655 0.0013039 -0.0010464 0.0001457 -0.0002063 0.0000082 0.0000905 -0.0000196 0.0000631 0.0000059 0.0001732 -0.0000376 0.0001556 0.0000000 0.0000204 -0.0000163 0.0002425 -0.0000245 0.0000633 -0.0000943 0.0003291 -0.0000494 0.0001191 -0.0000261 0.0001286 -0.0000233 0.0002026 -0.0000338 0.0002696 -0.0000727 0.0002219 -0.0000798 0.0001967 -0.0000225 0.0002300
-0.0000251 -0.0000368 -0.0000357 0.0001232 -0.0000178 0.0001077 -0.0000078 0.0000805 0.0000065 0.0001694 0.0012927 -0.0010343 0.0001422 -0.0002013 0.0000171 0.0000863 -0.0000192 0.0000704 0.0000044 0.0001816 -0.0000383 0.0001639 -0.0000044 0.0000184 -0.0000181 0.0002495 -0.0000255 0.0000625 -0.0000970 0.0003349 -0.0000497 0.0001248 -0.0000279 0.0001329 -0.0000228 0.0002195 -0.0000357 0.0002783 -0.0000761 0.0002341 -0.0000787 0.0001943 -0.0000231 0.0002327
-0.0000248 -0.0000399 -0.0000482 0.0001227 -0.0000121 0.0001038 -0.0000109 0.0000775 0.0000044 0.0001735 0.0012854 -0.0010255 0.0001432 -0.0002027 0.0000195 0.0000868 -0.0000191 0.0000770 0.0000030 0.0001900 -0.0000385 0.0001704 -0.0000056 0.0000127 -0.0000193 0.0002558 -0.0000258 0.0000617 -0.0000999 0.0003395 -0.0000492 0.0001281 -0.0000294 0.0001362 -0.0000224 0.0002352 -0.0000380 0.0002847 -0.0000797 0.0002454 -0.0000800 0.0001926 -0.0000244 0.0002338
-0.0000247 -0.0000427 -0.0000391 0.0001180 -0.0000135 0.0000996 -0.0000035 0.0000674 0.0000029 0.0001778 0.0012672 -0.0010093 0.0001591 -0.0002253 0.0000138 0.0000947 -0.0000181 0.0000832 0.0000024 0.0001967 -0.0000387 0.0001733 -0.0000069 0.0000107 -0.0000200 0.0002606 -0.0000261 0.0000619 -0.0001027 0.0003425 -0.0000492 0.0001302 -0.0000305 0.0001379 -0.0000223 0.0002511 -0.0000407 0.0002894 -0.0000836 0.0002547 -0.0000797 0.0001884 -0.0000249 0.0002330
-0.0000277 -0.0000420 -0.0000528 0.0001450 -0.0000221 0.0001045 -0.0000006 0.0000645 0.0000032 0.0001802 0.0012409 -0.0009891 0.0001686 -0.0002390 0.0000107 0.0001003 -0.0000175 0.0000899 0.0000014 0.0002032 -0.0000397 0.0001749 -0.0000071 0.0000090 -0.0000210 0.0002654 -0.0000260 0.0000623 -0.0001055 0.0003440 -0.0000491 0.0001315 -0.0000315 0.0001384 -0.0000212 0.0002662 -0.0000440 0.0002920 -0.0000863 0.0002621 -0.0000789 0.0001797 -0.0000250 0.0002289
-0.0000293 -0.0000407 -0.0000437 0.0001357 -0.0000147 0.0000932 -0.0000104 0.0000752 0.0000050 0.0001800 0.0012238 -0.0009739 0.0001690 -0.0002396 0.0000023 0.0001054 -0.0000160 0.0000937 0.0000006 0.0002057 -0.0000389 0.0001549 -0.0000078 0.0000046 -0.0000210 0.0002636 -0.0000263 0.0000602 -0.0001063 0.0003332 -0.0000480 0.0001222 -0.0000327 0.0001271 -0.0000192 0.0002742 -0.0000459 0.0002788 -0.0000880 0.0002585 -0.0000779 0.0001655 -0.0000250 0.0002196
-0.0000278 -0.0000416 -0.0000695 0.0001389 -0.0000120 0.0000819 -0.0000185 0.0000824 0.0000053 0.0001795 0.0011952 -0.0009506 0.0001891 -0.0002682 0.0000022 0.0001021 -0.0000130 0.0001015 0.0000006 0.0002097 -0.0000382 0.0001510 -0.0000087 0.0000029 -0.0000208 0.0002645 -0.0000266 0.0000585 -0.0001073 0.0003280 -0.0000472 0.0001203 -0.0000334 0.0001253 -0.0000157 0.0002932 -0.0000492 0.0002790 -0.0000893 0.0002624 -0.0000766 0.0001594 -0.0000248 0.0002153
-0.0000319 -0.0000415 -0.0001195 0.0001854 -0.0000142 0.0000791 -0.0000236 0.0000848 0.0000042 0.0001797 0.0011757 -0.0009347 0.0001999 -0.0002836 -0.0000004 0.0001068 -0.0000105 0.0001111 0.0000004 0.0002157 -0.0000376 0.0001533 -0.0000087 -0.0000018 -0.0000210 0.0002682 -0.0000266 0.0000575 -0.0001070 0.0003249 -0.0000455 0.0001202 -0.0000345 0.0001250 -0.0000111 0.0003145 -0.0000526 0.0002802 -0.0000901 0.0002698 -0.0000779 0.0001571 -0.0000254 0.0002119
-0.0000298 -0.0000452 -0.0001496 0.0001988 -0.0000096 0.0000657 -0.0000140 0.0000839 0.0000027 0.0001832 0.0011469 -0.0009089 0.0002209 -0.0003136 -0.0000043 0.0001132 -0.0000085 0.0001202 0.0000002 0.0002216 -0.0000374 0.0001563 -0.0000096 -0.0000030 -0.0000206 0.0002720 -0.0000270 0.0000574 -0.0001075 0.0003228 -0.0000443 0.0001228 -0.0000356 0.0001268 -0.0000078 0.0003357 -0.0000563 0.0002858 -0.0000899 0.0002788 -0.0000770 0.0001565 -0.0000258 0.0002104
-0.0000296 -0.0000460 -0.0001384 0.0001920 -0.0000127 0.0000671 -0.0000159 0.0000866 0.0000034 0.0001849 0.0011162 -0.0008840 0.0002380 -0.0003382 -0.0000044 0.0001127 -0.0000058 0.0001270 -0.0000007 0.0002277 -0.0000376 0.0001593 -0.0000105 0.0000008 -0.0000205 0.0002769 -0.0000270 0.0000580 -0.0001066 0.0003192 -0.0000424 0.0001226 -0.0000363 0.0001273 -0.0000051 0.0003524 -0.0000603 0.0002891 -0.0000899 0.0002849 -0.0000745 0.0001528 -0.0000263 0.0002079
-0.0000320 -0.0000447 -0.0001226 0.0001789 -0.0000161 0.0000705 -0.0000172 0.0000911 0.0000031 0.0001861 0.0010916 -0.0008635 0.0002474 -0.0003516 -0.0000073 0.0001128 -0.0000041 0.0001338 -0.0000012 0.0002330 -0.0000376 0.0001590 -0.0000103 0.0000042 -0.0000205 0.0002805 -0.0000271 0.0000584 -0.0001065 0.0003152 -0.0000405 0.0001219 -0.0000370 0.0001262 -0.0000028 0.0003681 -0.0000645 0.0002902 -0.0000905 0.0002896 -0.0000729 0.0001482 -0.0000265 0.0002039
-0.0000311 -0.0000442 -0.0001223 0.0001777 -0.0000136 0.0000632 -0.0000107 0.0000937 0.0000029 0.0001887 0.0010612 -0.0008385 0.0002577 -0.0003664 -0.0000061 0.0001103 -0.0000023 0.0001409 -0.0000015 0.0002378 -0.0000382 0.0001581 -0.0000098 0.0000054 -0.0000205 0.0002834 -0.0000275 0.0000585 -0.0001061 0.0003098 -0.0000381 0.0001196 -0.0000375 0.0001231 0.0000008 0.0003826 -0.0000684 0.0002838 -0.0000916 0.0002912 -0.0000712 0.0001368 -0.0000259 0.0001924
-0.0000284 -0.0000458 -0.0001070 0.0001599 -0.0000099 0.0000518 -0.0000130 0.0000958 0.0000020 0.0001892 0.0010432 -0.0008259 0.0002652 -0.0003771 -0.0000039 0.0001050 0.0000002 0.0001481 -0.0000017 0.0002420 -0.0000383 0.0001564 -0.0000105 0.0000085 -0.0000202 0.0002861 -0.0000278 0.0000584 -0.0001054 0.0003037 -0.0000362 0.0001175 -0.0000382 0.0001224 0.0000038 0.0004008 -0.0000723 0.0002857 -0.0000918 0.0002954 -0.0000703 0.0001351 -0.0000259 0.0001885
-0.0000273 -0.0000456 -0.0001109 0.0001648 -0.0000034 0.0000406 -0.0000115 0.0000951 0.0000023 0.0001912 0.0010189 -0.0008073 0.0002819 -0.0004011 -0.0000038 0.0001086 0.0000033 0.0001564 -0.0000018 0.0002478 -0.0000385 0.0001578 -0.0000093 0.0000094 -0.0000196 0.0002900 -0.0000280 0.0000585 -0.0001024 0.0002969 -0.0000334 0.0001167 -0.0000392 0.0001230 0.0000074 0.0004217 -0.0000769 0.0002901 -0.0000906 0.0003013 -0.0000699 0.0001335 -0.0000253 0.0001857
-0.0000261 -0.0000461 -0.0001124 0.0001257 0.0000023 0.0000268 -0.0000163 0.0001019 0.0000039 0.0001925 0.0009899 -0.0007845 0.0002937 -0.0004180 -0.0000005 0.0001071 0.0000063 0.0001638 -0.0000021 0.0002537 -0.0000381 0.0001591 -0.0000099 0.0000135 -0.0000196 0.0002948 -0.0000284 0.0000590 -0.0000998 0.0002914 -0.0000305 0.0001163 -0.0000400 0.0001233 0.0000111 0.0004404 -0.0000812 0.0002940 -0.0000899 0.0003077 -0.0000682 0.0001317 -0.0000248 0.0001827
-0.0000253 -0.0000454 -0.0001077 0.0001412 0.0000028 0.0000180 -0.0000168 0.0001023 0.0000039 0.0001951 0.0009619 -0.0007626 0.0003056 -0.0004351 -0.0000062 0.0001096 0.0000089 0.0001708 -0.0000027 0.0002596 -0.0000390 0.0001611 -0.0000084 0.0000139 -0.0000189 0.0002987 -0.0000293 0.0000595 -0.0000969 0.0002858 -0.0000274 0.0001157 -0.0000412 0.0001234 0.0000152 0.0004564 -0.0000855 0.0002959 -0.0000889 0.0003127 -0.0000674 0.0001291 -0.0000244 0.0001789
-0.0000253 -0.0000441 -0.0001201 0.0001544 0.0000040 0.0000109 -0.0000004 0.0000943 0.0000035 0.0001979 0.0009359 -0.0007423 0.0003263 -0.0004648 -0.0000090 0.0001155 0.0000121 0.0001765 -0.0000030 0.0002646 -0.0000397 0.0001610 -0.0000106 0.0000172 -0.0000186 0.0003021 -0.0000293 0.0000589 -0.0000934 0.0002780 -0.0000245 0.0001143 -0.0000423 0.0001221 0.0000187 0.0004705 -0.0000897 0.0002954 -0.0000884 0.0003162 -0.0000667 0.0001250 -0.0000238 0.0001744
-0.0000247 -0.0000421 -0.0000872 0.0001420 -0.0000003 0.0000128 -0.0000072 0.0001080 0.0000044 0.0001999 0.0009060 -0.0007208 0.0003566 -0.0005083 -0.0000070 0.0001117 0.0000151 0.0001829 -0.0000027 0.0002686 -0.0000396 0.0001573 -0.0000108 0.0000205 -0.0000174 0.0003040 -0.0000298 0.0000588 -0.0000909 0.0002700 -0.0000213 0.0001110 -0.0000431 0.0001195 0.0000230 0.0004832 -0.0000941 0.0002933 -0.0000880 0.0003187 -0.0000655 0.0001193 -0.0000232 0.0001689
-0.0000223 -0.0000416 -0.0000535 0.0001215 -0.0000073 0.0000107 0.0000016 0.0001055 0.0000051 0.0002032 0.0008710 -0.0006965 0.0003823 -0.0005452 -0.0000064 0.0001142 0.0000186 0.0001900 -0.0000027 0.0002731 -0.0000406 0.0001587 -0.0000110 0.0000241 -0.0000169 0.0003073 -0.0000304 0.0000588 -0.0000880 0.0002638 -0.0000180 0.0001100 -0.0000443 0.0001208 0.0000265 0.0005008 -0.0000989 0.0002985 -0.0000874 0.0003243 -0.0000643 0.0001190 -0.0000226 0.0001695
-0.0000200 -0.0000403 -0.0000505 0.0001274 -0.0000131 0.0000117 0.0000040 0.0001130 0.0000047 0.0002085 0.0008365 -0.0006725 0.0004045 -0.0005771 -0.0000069 0.0001163 0.0000221 0.0001989 -0.0000025 0.0002789 -0.0000417 0.0001658 -0.0000098 0.0000253 -0.0000162 0.0003123 -0.0000307 0.0000587 -0.0000846 0.0002610 -0.0000149 0.0001116 -0.0000451 0.0001238 0.0000306 0.0005198 -0.0001035 0.0003069 -0.0000867 0.0003330 -0.0000653 0.0001243 -0.0000224 0.0001730
-0.0000199 -0.0000372 -0.0000529 0.0001041 -0.0000118 0.0000116 0.0000099 0.0001197 0.0000046 0.0002144 0.0008023 -0.0006516 0.0004264 -0.0006087 -0.0000107 0.0001233 0.0000244 0.0002078 -0.0000032 0.0002860 -0.0000432 0.0001747 -0.0000100 0.0000282 -0.0000160 0.0003184 -0.0000315 0.0000594 -0.0000812 0.0002591 -0.0000122 0.0001144 -0.0000463 0.0001281 0.0000324 0.0005357 -0.0001075 0.0003152 -0.0000871 0.0003419 -0.0000645 0.0001275 -0.0000221 0.0001768
-0.0000196 -0.0000341 -0.0000819 0.0001297 -0.0000100 0.0000115 0.0000157 0.0001195 0.0000041 0.0002212 0.0007878 -0.0006413 0.0004310 -0.0006154 -0.0000181 0.0001337 0.0000269 0.0002137 -0.0000030 0.0002926 -0.0000446 0.0001813 -0.0000093 0.0000249 -0.0000163 0.0003245 -0.0000318 0.0000602 -0.0000788 0.0002579 -0.0000106 0.0001165 -0.0000468 0.0001334 0.0000335 0.0005473 -0.0001115 0.0003227 -0.0000881 0.0003497 -0.0000652 0.0001341 -0.0000218 0.0001794
-0.0000221 -0.0000332 -0.0000793 0.0001428 -0.0000146 0.0000143 0.0000237 0.0001232 0.0000029 0.0002255 0.0007784 -0.0006343 0.0004245 -0.0006059 -0.0000190 0.0001346 0.0000290 0.0002192 -0.0000032 0.0002989 -0.0000467 0.0001879 -0.0000107 0.0000257 -0.0000166 0.0003299 -0.0000327 0.0000615 -0.0000758 0.0002552 -0.0000090 0.0001179 -0.0000469 0.0001367 0.0000338 0.0005580 -0.0001152 0.0003297 -0.0000887 0.0003564 -0.0000632 0.0001382 -0.0000218 0.0001818
-0.0000220 -0.0000339 -0.0000708 0.0001417 -0.0000252 0.0000291 0.0000370 0.0001165 0.0000031 0.0002280 0.0007747 -0.0006323 0.0004162 -0.0005941 -0.0000179 0.0001327 0.0000302 0.0002249 -0.0000039 0.0003058 -0.0000482 0.0001930 -0.0000095 0.0000230 -0.0000170 0.0003356 -0.0000335 0.0000620 -0.0000736 0.0002538 -0.0000078 0.0001193 -0.0000479 0.0001399 0.0000342 0.0005676 -0.0001192 0.0003363 -0.0000897 0.0003627 -0.0000619 0.0001438 -0.0000221 0.0001845
-0.0000203 -0.0000364 -0.0000892 0.0001625 -0.0000122 0.0000183 0.0000302 0.0001245 0.0000023 0.0002326 0.0007709 -0.0006302 0.0004178 -0.0005965 -0.0000133 0.0001300 0.0000319 0.0002304 -0.0000041 0.0003121 -0.0000495 0.0001969 -0.0000102 0.0000213 -0.0000171 0.0003404 -0.0000342 0.0000624 -0.0000701 0.0002495 -0.0000061 0.0001183 -0.0000491 0.0001385 0.0000359 0.0005749 -0.0001228 0.0003298 -0.0000927 0.0003640 -0.0000609 0.0001397 -0.0000213 0.0001760
-0.0000186 -0.0000375 -0.0000933 0.0001577 -0.0000065 0.0000081 0.0000369 0.0001160 -0.0000001 0.0002347 0.0007768 -0.0006341 0.0004015 -0.0005732 -0.0000080 0.0001252 0.0000340 0.0002355 -0.0000045 0.0003181 -0.0000514 0.0001990 -0.0000114 0.0000192 -0.0000171 0.0003438 -0.0000345 0.0000620 -0.0000676 0.0002452 -0.0000041 0.0001179 -0.0000501 0.0001417 0.0000366 0.0005864 -0.0001266 0.0003376 -0.0000953 0.0003715 -0.0000610 0.0001470 -0.0000209 0.0001788
-0.0000227 -0.0000359 -0.0001000 0.0001683 -0.0000038 0.0000081 0.0000371 0.0001116 0.0000005 0.0002366 0.0007884 -0.0006408 0.0003787 -0.0005405 -0.0000053 0.0001265 0.0000358 0.0002413 -0.0000051 0.0003257 -0.0000528 0.0002068 -0.0000111 0.0000144 -0.0000173 0.0003498 -0.0000344 0.0000631 -0.0000655 0.0002466 -0.0000028 0.0001223 -0.0000512 0.0001481 0.0000369 0.0005988 -0.0001305 0.0003519 -0.0000987 0.0003849 -0.0000623 0.0001577 -0.0000211 0.0001869
-0.0000178 -0.0000364 -0.0000807 0.0001408 -0.0000058 0.0000123 0.0000331 0.0001148 -0.0000003 0.0002439 0.0007832 -0.0006381 0.0003664 -0.0005228 -0.0000031 0.0001269 0.0000367 0.0002460 -0.0000055 0.0003322 -0.0000556 0.0002176 -0.0000121 0.0000145 -0.0000176 0.0003553 -0.0000347 0.0000644 -0.0000646 0.0002502 -0.0000025 0.0001278 -0.0000523 0.0001550 0.0000343 0.0006083 -0.0001342 0.0003657 -0.0001025 0.0003947 -0.0000618 0.0001666 -0.0000209 0.0001957
-0.0000203 -0.0000327 -0.0000899 0.0001409 -0.0000192 0.0000360 0.0000275 0.0001181 -0.0000015 0.0002489 0.0007828 -0.0006407 0.0003489 -0.0004979 0.0000026 0.0001244 0.0000364 0.0002502 -0.0000068 0.0003402 -0.0000585 0.0002302 -0.0000143 0.0000149 -0.0000185 0.0003618 -0.0000345 0.0000656 -0.0000643 0.0002556 -0.0000027 0.0001329 -0.0000533 0.0001627 0.0000312 0.0006148 -0.0001376 0.0003795 -0.0001083 0.0004047 -0.0000619 0.0001732 -0.0000204 0.0002039
-0.0000195 -0.0000325 -0.0001024 0.0001629 -0.0000159 0.0000379 0.0000299 0.0001167 -0.0000040 0.0002580 0.0007775 -0.0006389 0.0003443 -0.0004913 0.0000048 0.0001313 0.0000353 0.0002548 -0.0000087 0.0003483 -0.0000617 0.0002415 -0.0000128 0.0000138 -0.0000190 0.0003671 -0.0000348 0.0000675 -0.0000646 0.0002603 -0.0000042 0.0001380 -0.0000553 0.0001702 0.0000272 0.0006203 -0.0001406 0.0003915 -0.0001142 0.0004131 -0.0000622 0.0001802 -0.0000201 0.0002118
-0.0000184 -0.0000317 -0.0000965 0.0001468 -0.0000177 0.0000448 0.0000304 0.0001186 -0.0000047 0.0002667 0.0007537 -0.0006230 0.0003511 -0.0005011 0.0000058 0.0001374 0.0000349 0.0002581 -0.0000098 0.0003557 -0.0000649 0.0002511 -0.0000133 0.0000151 -0.0000199 0.0003736 -0.0000350 0.0000699 -0.0000639 0.0002637 -0.0000049 0.0001421 -0.0000572 0.0001773 0.0000231 0.0006256 -0.0001434 0.0004027 -0.0001201 0.0004215 -0.0000659 0.0001911 -0.0000200 0.0002190
-0.0000182 -0.0000313 -0.0001083 0.0001615 -0.0000153 0.0000490 0.0000305 0.0001220 -0.0000037 0.0002727 0.0007408 -0.0006138 0.0003463 -0.0004942 0.0000036 0.0001462 0.0000350 0.0002585 -0.0000115 0.0003612 -0.0000668 0.0002438 -0.0000140 0.0000150 -0.0000196 0.0003741 -0.0000349 0.0000706 -0.0000635 0.0002579 -0.0000053 0.0001368 -0.0000585 0.0001711 0.0000205 0.0006222 -0.0001452 0.0003940 -0.0001255 0.0004183 -0.0000668 0.0001881 -0.0000193 0.0002163
-0.0000179 -0.0000282 -0.0001144 0.0001654 -0.0000185 0.0000510 0.0000254 0.0001327 -0.0000030 0.0002753 0.0007171 -0.0005956 0.0003576 -0.0005104 0.0000019 0.0001524 0.0000350 0.0002626 -0.0000129 0.0003670 -0.0000694 0.0002458 -0.0000144 0.0000153 -0.0000197 0.0003761 -0.0000348 0.0000719 -0.0000631 0.0002576 -0.0000054 0.0001370 -0.0000598 0.0001733 0.0000190 0.0006267 -0.0001474 0.0003999 -0.0001307 0.0004234 -0.0000669 0.0001920 -0.0000193 0.0002208
-0.0000181 -0.0000268 -0.0001025 0.0001424 -0.0000218 0.0000572 0.0000389 0.0001279 -0.0000036 0.0002809 0.0006977 -0.0005823 0.0003511 -0.0005011 -0.0000014 0.0001594 0.0000347 0.0002673 -0.0000143 0.0003737 -0.0000720 0.0002548 -0.0000158 0.0000174 -0.0000205 0.0003805 -0.0000350 0.0000735 -0.0000635 0.0002627 -0.0000067 0.0001418 -0.0000610 0.0001789 0.0000164 0.0006335 -0.0001500 0.0004100 -0.0001363 0.0004319 -0.0000686 0.0002004 -0.0000195 0.0002281
-0.0000183 -0.0000257 -0.0001156 0.0001790 -0.0000289 0.0000712 0.0000345 0.0001293 -0.0000039 0.0002872 0.0006845 -0.0005726 0.0003479 -0.0004965 -0.0000098 0.0001720 0.0000337 0.0002712 -0.0000159 0.0003799 -0.0000748 0.0002634 -0.0000160 0.0000159 -0.0000210 0.0003848 -0.0000349 0.0000753 -0.0000647 0.0002685 -0.0000084 0.0001467 -0.0000623 0.0001852 0.0000122 0.0006380 -0.0001524 0.0004223 -0.0001432 0.0004410 -0.0000693 0.0002111 -0.0000207 0.0002388
-0.0000200 -0.0000248 -0.0001338 0.0001891 -0.0000378 0.0000889 0.0000313 0.0001351 -0.0000070 0.0002955 0.0006669 -0.0005584 0.0003475 -0.0004960 -0.0000093 0.0001827 0.0000320 0.0002746 -0.0000177 0.0003870 -0.0000779 0.0002739 -0.0000174 0.0000147 -0.0000223 0.0003901 -0.0000345 0.0000778 -0.0000660 0.0002746 -0.0000111 0.0001516 -0.0000636 0.0001914 0.0000072 0.0006412 -0.0001548 0.0004343 -0.0001509 0.0004497 -0.0000717 0.0002229 -0.0000218 0.0002484
-0.0000218 -0.0000242 -0.0001472 0.0001937 -0.0000421 0.0001031 0.0000345 0.0001365 -0.0000075 0.0003010 0.0006537 -0.0005498 0.0003392 -0.0004842 -0.0000081 0.0001848 0.0000299 0.0002773 -0.0000198 0.0003941 -0.0000813 0.0002823 -0.0000167 0.0000161 -0.0000230 0.0003950 -0.0000348 0.0000814 -0.0000681 0.0002812 -0.0000135 0.0001547 -0.0000646 0.0001968 0.0000019 0.0006431 -0.0001572 0.0004443 -0.0001585 0.0004567 -0.0000743 0.0002343 -0.0000231 0.0002574
-0.0000238 -0.0000226 -0.0001665 0.0002005 -0.0000355 0.0001037 0.0000370 0.0001356 -0.0000076 0.0003091 0.0006317 -0.0005331 0.0003380 -0.0004825 -0.0000140 0.0001969 0.0000284 0.0002799 -0.0000217 0.0004013 -0.0000851 0.0002913 -0.0000181 0.0000188 -0.0000243 0.0004005 -0.0000346 0.0000848 -0.0000699 0.0002874 -0.0000165 0.0001584 -0.0000666 0.0002031 -0.0000033 0.0006451 -0.0001597 0.0004525 -0.0001664 0.0004630 -0.0000755 0.0002405 -0.0000248 0.0002620
-0.0000257 -0.0000213 -0.0001769 0.0001960 -0.0000320 0.0001034 0.0000435 0.0001343 -0.0000073 0.0003127 0.0006204 -0.0005225 0.0003380 -0.0004826 -0.0000133 0.0002005 0.0000271 0.0002781 -0.0000239 0.0004045 -0.0000875 0.0002790 -0.0000180 0.0000187 -0.0000246 0.0004001 -0.0000343 0.0000864 -0.0000719 0.0002859 -0.0000182 0.0001543 -0.0000681 0.0002015 -0.0000077 0.0006415 -0.0001615 0.0004532 -0.0001734 0.0004641 -0.0000777 0.0002465 -0.0000263 0.0002665
-0.0000268 -0.0000195 -0.0001690 0.0001763 -0.0000288 0.0001056 0.0000429 0.0001384 -0.0000094 0.0003176 0.0005971 -0.0005050 0.0003424 -0.0004890 -0.0000196 0.0002141 0.0000258 0.0002791 -0.0000256 0.0004087 -0.0000903 0.0002788 -0.0000182 0.0000216 -0.0000251 0.0004012 -0.0000341 0.0000895 -0.0000750 0.0002885 -0.0000204 0.0001535 -0.0000693 0.0002029 -0.0000117 0.0006400 -0.0001637 0.0004577 -0.0001803 0.0004674 -0.0000809 0.0002559 -0.0000278 0.0002736
-0.0000278 -0.0000164 -0.0001328 0.0001580 -0.0000325 0.0001103 0.0000372 0.0001457 -0.0000098 0.0003215 0.0005691 -0.0004826 0.0003426 -0.0004893 -0.0000218 0.0002227 0.0000246 0.0002801 -0.0000274 0.0004137 -0.0000928 0.0002810 -0.0000184 0.0000242 -0.0000259 0.0004032 -0.0000339 0.0000932 -0.0000782 0.0002927 -0.0000217 0.0001518 -0.0000702 0.0002046 -0.0000152 0.0006388 -0.0001660 0.0004621 -0.0001862 0.0004707 -0.0000846 0.0002670 -0.0000297 0.0002806
-0.0000271 -0.0000157 -0.0001073 0.0001468 -0.0000335 0.0001154 0.0000444 0.0001482 -0.0000094 0.0003250 0.0005230 -0.0004503 0.0003711 -0.0005303 -0.0000188 0.0002218 0.0000224 0.0002818 -0.0000303 0.0004193 -0.0000956 0.0002854 -0.0000165 0.0000329 -0.0000265 0.0004061 -0.0000336 0.0000966 -0.0000813 0.0002985 -0.0000234 0.0001526 -0.0000716 0.0002058 -0.0000199 0.0006387 -0.0001683 0.0004688 -0.0001929 0.0004749 -0.0000882 0.0002766 -0.0000318 0.0002897
-0.0000242 -0.0000115 -0.0001124 0.0001521 -0.0000401 0.0001269 0.0000395 0.0001586 -0.0000101 0.0003334 0.0004801 -0.0004212 0.0003997 -0.0005716 -0.0000227 0.0002373 0.0000200 0.0002826 -0.0000325 0.0004237 -0.0000974 0.0002878 -0.0000152 0.0000382 -0.0000271 0.0004078 -0.0000340 0.0000986 -0.0000837 0.0003038 -0.0000254 0.0001524 -0.0000735 0.0002075 -0.0000237 0.0006371 -0.0001706 0.0004736 -0.0002000 0.0004770 -0.0000922 0.0002843 -0.0000333 0.0002982
-0.0000232 -0.0000085 -0.0001070 0.0001364 -0.0000421 0.0001322 0.0000181 0.0001817 -0.0000111 0.0003398 0.0004490 -0.0004005 0.0004260 -0.0006095 -0.0000282 0.0002465 0.0000181 0.0002823 -0.0000348 0.0004275 -0.0001003 0.0002906 -0.0000167 0.0000403 -0.0000281 0.0004093 -0.0000346 0.0000997 -0.0000869 0.0003091 -0.0000271 0.0001514 -0.0000746 0.0002076 -0.0000271 0.0006340 -0.0001728 0.0004779 -0.0002061 0.0004781 -0.0000969 0.0002940 -0.0000346 0.0003065
-0.0000222 -0.0000050 -0.0000910 0.0001292 -0.0000458 0.0001386 0.0000275 0.0001787 -0.0000115 0.0003439 0.0004161 -0.0003769 0.0004596 -0.0006581 -0.0000337 0.0002493 0.0000153 0.0002826 -0.0000371 0.0004316 -0.0001031 0.0002933 -0.0000178 0.0000419 -0.0000290 0.0004103 -0.0000353 0.0001013 -0.0000904 0.0003152 -0.0000283 0.0001501 -0.0000754 0.0002062 -0.0000306 0.0006306 -0.0001745 0.0004826 -0.0002108 0.0004782 -0.0000998 0.0003035 -0.0000362 0.0003141
-0.0000201 -0.0000036 -0.0000804 0.0001315 -0.0000532 0.0001513 0.0000302 0.0001817 -0.0000102 0.0003473 0.0003722 -0.0003456 0.0005098 -0.0007308 -0.0000339 0.0002539 0.0000132 0.0002815 -0.0000391 0.0004346 -0.0001051 0.0002970 -0.0000186 0.0000432 -0.0000296 0.0004115 -0.0000356 0.0001033 -0.0000931 0.0003221 -0.0000302 0.0001505 -0.0000765 0.0002055 -0.0000339 0.0006269 -0.0001764 0.0004881 -0.0002161 0.0004799 -0.0001026 0.0003132 -0.0000389 0.0003226
-0.0000167 -0.0000020 -0.0000471 0.0001135 -0.0000569 0.0001622 0.0000350 0.0001815 -0.0000108 0.0003513 0.0002907 -0.0002629 0.0005822 -0.0008375 -0.0000400 0.0002631 0.0000108 0.0002801 -0.0000413 0.0004377 -0.0001077 0.0003022 -0.0000194 0.0000513 -0.0000307 0.0004129 -0.0000357 0.0001089 -0.0000957 0.0003285 -0.0000317 0.0001504 -0.0000776 0.0002034 -0.0000370 0.0006230 -0.0001780 0.0004931 -0.0002204 0.0004802 -0.0001054 0.0003192 -0.0000426 0.0003239
-0.0000164 0.0000010 -0.0000235 0.0001013 -0.0000516 0.0001579 0.0000415 0.0001881 -0.0000112 0.0003571 0.0000806 -0.0000472 0.0007370 -0.0010662 -0.0000427 0.0002699 0.0000090 0.0002786 -0.0000441 0.0004409 -0.0001096 0.0003058 -0.0000161 0.0000734 -0.0000306 0.0004149 -0.0000335 0.0001276 -0.0000984 0.0003353 -0.0000331 0.0001487 -0.0000782 0.0001996 -0.0000390 0.0006191 -0.0001786 0.0004974 -0.0002247 0.0004808 -0.0001100 0.0003262 -0.0000505 0.0003131
-0.0000133 -0.0000005 -0.0000046 0.0000916 -0.0000471 0.0001516 0.0000523 0.0002013 -0.0000111 0.0003647 -0.0001700 0.0000519 0.0009516 -0.0013857 -0.0000454 0.0002785 0.0000079 0.0002767 -0.0000466 0.0004432 -0.0001109 0.0003080 -0.0000069 0.0000984 -0.0000295 0.0004168 -0.0000295 0.0001579 -0.0001009 0.0003424 -0.0000345 0.0001471 -0.0000790 0.0001938 -0.0000410 0.0006169 -0.0001794 0.0005016 -0.0002278 0.0004797 -0.0001155 0.0003376 -0.0000590 0.0003003
-0.0000125 -0.0000001 0.0000298 0.0000478 -0.0000453 0.0001516 0.0000668 0.0002103 -0.0000100 0.0003679 -0.0004187 0.0001739 0.0011419 -0.0016707 -0.0000493 0.0002807 0.0000067 0.0002743 -0.0000488 0.0004447 -0.0001114 0.0003082 0.0000001 0.0001234 -0.0000285 0.0004185 -0.0000257 0.0001869 -0.0001031 0.0003481 -0.0000349 0.0001444 -0.0000793 0.0001868 -0.0000413 0.0006143 -0.0001800 0.0005043 -0.0002310 0.0004784 -0.0001205 0.0003464 -0.0000676 0.0002866
-0.0000116 0.0000005 0.0000288 0.0000609 -0.0000455 0.0001514 0.0000697 0.0002206 -0.0000085 0.0003709 -0.0006598 0.0002739 0.0013420 -0.0019722 -0.0000487 0.0002822 0.0000057 0.0002723 -0.0000510 0.0004457 -0.0001123 0.0003087 0.0000072 0.0001449 -0.0000274 0.0004190 -0.0000221 0.0002149 -0.0001060 0.0003536 -0.0000351 0.0001409 -0.0000797 0.0001788 -0.0000405 0.0006119 -0.0001807 0.0005041 -0.0002342 0.0004758 -0.0001231 0.0003459 -0.0000763 0.0002668
-0.0000108 0.0000018 0.0000465 0.0000448 -0.0000500 0.0001508 0.0000662 0.0002415 -0.0000088 0.0003731 -0.0009072 0.0004011 0.0015369 -0.0022673 -0.0000458 0.0002757 0.0000055 0.0002696 -0.0000514 0.0004436 -0.0001121 0.0003033 0.0000151 0.0001665 -0.0000266 0.0004191 -0.0000187 0.0002428 -0.0001083 0.0003572 -0.0000348 0.0001361 -0.0000804 0.0001708 -0.0000391 0.0006118 -0.0001807 0.0005083 -0.0002359 0.0004757 -0.0001270 0.0003553 -0.0000858 0.0002545
-0.0000104 0.0000034 0.0000413 0.0000543 -0.0000548 0.0001540 0.0000753 0.0002481 -0.0000095 0.0003772 -0.0011585 0.0005577 0.0017168 -0.0025413 -0.0000392 0.0002727 0.0000056 0.0002685 -0.0000526 0.0004442 -0.0001123 0.0003078 0.0000234 0.0001882 -0.0000253 0.0004212 -0.0000148 0.0002708 -0.0001116 0.0003660 -0.0000345 0.0001353 -0.0000804 0.0001666 -0.0000384 0.0006151 -0.0001811 0.0005185 -0.0002373 0.0004809 -0.0001327 0.0003721 -0.0000948 0.0002477
-0.0000094 0.0000040 0.0000170 0.0000737 -0.0000526 0.0001543 0.0000750 0.0002641 -0.0000084 0.0003809 -0.0014100 0.0007306 0.0019063 -0.0028311 -0.0000432 0.0002796 0.0000049 0.0002673 -0.0000541 0.0004457 -0.0001127 0.0003147 0.0000313 0.0002086 -0.0000245 0.0004244 -0.0000112 0.0002975 -0.0001148 0.0003752 -0.0000342 0.0001351 -0.0000810 0.0001629 -0.0000380 0.0006158 -0.0001808 0.0005270 -0.0002388 0.0004843 -0.0001369 0.0003851 -0.0001045 0.0002407
-0.0000080 0.0000049 0.0000435 0.0000557 -0.0000582 0.0001619 0.0000786 0.0002773 -0.0000090 0.0003853 -0.0016631 0.0009122 0.0020852 -0.0031060 -0.0000431 0.0002858 0.0000041 0.0002659 -0.0000555 0.0004473 -0.0001134 0.0003245 0.0000358 0.0002275 -0.0000246 0.0004280 -0.0000078 0.0003223 -0.0001181 0.0003854 -0.0000342 0.0001363 -0.0000815 0.0001602 -0.0000378 0.0006178 -0.0001808 0.0005374 -0.0002399 0.0004870 -0.0001407 0.0003982 -0.0001138 0.0002346
-0.0000063 0.0000049 0.0000582 0.0000264 -0.0000591 0.0001607 0.0000987 0.0002759 -0.0000078 0.0003868 -0.0018975 0.0011064 0.0022598 -0.0033755 -0.0000399 0.0002824 0.0000033 0.0002638 -0.0000576 0.0004493 -0.0001139 0.0003330 0.0000398 0.0002456 -0.0000242 0.0004305 -0.0000051 0.0003453 -0.0001224 0.0003964 -0.0000346 0.0001364 -0.0000819 0.0001563 -0.0000377 0.0006186 -0.0001807 0.0005457 -0.0002417 0.0004899 -0.0001429 0.0004098 -0.0001228 0.0002279
-0.0000052 0.0000065 0.0000495 0.0000640 -0.0000546 0.0001553 0.0001006 0.0002859 -0.0000081 0.0003916 -0.0021447 0.0013043 0.0024381 -0.0036520 -0.0000394 0.0002870 0.0000025 0.0002623 -0.0000602 0.0004517 -0.0001145 0.0003409 0.0000433 0.0002624 -0.0000242 0.0004335 -0.0000022 0.0003678 -0.0001266 0.0004068 -0.0000346 0.0001362 -0.0000829 0.0001506 -0.0000359 0.0006194 -0.0001806 0.0005471 -0.0002421 0.0004878 -0.0001458 0.0004129 -0.0001310 0.0002103
-0.0000018 0.0000062 0.0000589 0.0000562 -0.0000586 0.0001518 0.0000924 0.0003027 -0.0000087 0.0003922 -0.0023669 0.0015037 0.0025952 -0.0038970 -0.0000345 0.0002797 0.0000030 0.0002554 -0.0000617 0.0004482 -0.0001126 0.0003216 0.0000479 0.0002717 -0.0000232 0.0004292 0.0000004 0.0003867 -0.0001293 0.0004023 -0.0000323 0.0001222 -0.0000830 0.0001285 -0.0000322 0.0006128 -0.0001790 0.0005269 -0.0002409 0.0004738 -0.0001480 0.0004043 -0.0001385 0.0001839
-0.0000039 0.0000119 0.0000607 0.0000681 -0.0000630 0.0001479 0.0000858 0.0003132 -0.0000067 0.0003863 -0.0025784 0.0017190 0.0027392 -0.0041227 -0.0000277 0.0002696 0.0000044 0.0002531 -0.0000617 0.0004462 -0.0001111 0.0003172 0.0000517 0.0002809 -0.0000226 0.0004274 0.0000028 0.0004049 -0.0001321 0.0004040 -0.0000309 0.0001169 -0.0000830 0.0001198 -0.0000276 0.0006187 -0.0001779 0.0005308 -0.0002389 0.0004744 -0.0001513 0.0004149 -0.0001466 0.0001743
-0.0000031 0.0000122 0.0000486 0.0000854 -0.0000630 0.0001455 0.0000987 0.0003142 -0.0000055 0.0003855 -0.0027912 0.0019376 0.0028942 -0.0043662 -0.0000236 0.0002606 0.0000053 0.0002521 -0.0000623 0.0004467 -0.0001095 0.0003241 0.0000545 0.0002909 -0.0000226 0.0004300 0.0000053 0.0004241 -0.0001335 0.0004114 -0.0000304 0.0001190 -0.0000829 0.0001164 -0.0000241 0.0006273 -0.0001769 0.0005403 -0.0002366 0.0004806 -0.0001522 0.0004265 -0.0001551 0.0001680
-0.0000052 0.0000124 0.0000328 0.0001150 -0.0000609 0.0001475 0.0000949 0.0003197 -0.0000060 0.0003883 -0.0029990 0.0021611 0.0030438 -0.0046024 -0.0000273 0.0002607 0.0000051 0.0002511 -0.0000636 0.0004484 -0.0001101 0.0003370 0.0000568 0.0003007 -0.0000230 0.0004336 0.0000080 0.0004427 -0.0001359 0.0004216 -0.0000305 0.0001236 -0.0000831 0.0001160 -0.0000233 0.0006346 -0.0001764 0.0005551 -0.0002354 0.0004880 -0.0001543 0.0004424 -0.0001637 0.0001657
-0.0000064 0.0000124 0.0000114 0.0001453 -0.0000608 0.0001465 0.0000980 0.0003267 -0.0000066 0.0003914 -0.0032075 0.0023840 0.0031839 -0.0048244 -0.0000325 0.0002647 0.0000041 0.0002497 -0.0000655 0.0004508 -0.0001107 0.0003520 0.0000585 0.0003097 -0.0000233 0.0004378 0.0000096 0.0004621 -0.0001388 0.0004334 -0.0000310 0.0001279 -0.0000833 0.0001162 -0.0000233 0.0006399 -0.0001761 0.0005690 -0.0002351 0.0004936 -0.0001545 0.0004567 -0.0001715 0.0001621
-0.0000071 0.0000121 0.0000129 0.0001460 -0.0000565 0.0001421 0.0000982 0.0003312 -0.0000065 0.0003920 -0.0034195 0.0026114 0.0033268 -0.0050513 -0.0000370 0.0002677 0.0000029 0.0002487 -0.0000680 0.0004543 -0.0001121 0.0003645 0.0000608 0.0003189 -0.0000242 0.0004428 0.0000122 0.0004812 -0.0001430 0.0004448 -0.0000319 0.0001317 -0.0000840 0.0001160 -0.0000229 0.0006435 -0.0001756 0.0005784 -0.0002350 0.0004977 -0.0001553 0.0004637 -0.0001788 0.0001506
-0.0000064 0.0000122 0.0000180 0.0001620 -0.0000528 0.0001345 0.0001057 0.0003365 -0.0000046 0.0003908 -0.0036280 0.0028469 0.0034517 -0.0052510 -0.0000378 0.0002634 0.0000035 0.0002430 -0.0000695 0.0004530 -0.0001111 0.0003512 0.0000647 0.0003277 -0.0000235 0.0004400 0.0000148 0.0004974 -0.0001448 0.0004409 -0.0000306 0.0001212 -0.0000841 0.0000994 -0.0000196 0.0006385 -0.0001738 0.0005590 -0.0002336 0.0004862 -0.0001540 0.0004453 -0.0001850 0.0001198
-0.0000051 0.0000133 0.0000265 0.0001494 -0.0000509 0.0001199 0.0001030 0.0003439 -0.0000034 0.0003851 -0.0037912 0.0030629 0.0035455 -0.0054018 -0.0000323 0.0002562 0.0000066 0.0002361 -0.0000704 0.0004473 -0.0001078 0.0003194 0.0000686 0.0003330 -0.0000225 0.0004325 0.0000168 0.0005092 -0.0001463 0.0004270 -0.0000285 0.0001047 -0.0000840 0.0000797 -0.0000135 0.0006374 -0.0001718 0.0005427 -0.0002303 0.0004758 -0.0001565 0.0004374 -0.0001914 0.0000992
-0.0000063 0.0000131 -0.0000041 0.0001783 -0.0000452 0.0000982 0.0001102 0.0003454 -0.0000046 0.0003807 -0.0039243 0.0032465 0.0036385 -0.0055520 -0.0000288 0.0002478 0.0000101 0.0002365 -0.0000703 0.0004453 -0.0001064 0.0003150 0.0000703 0.0003400 -0.0000221 0.0004320 0.0000188 0.0005213 -0.0001476 0.0004253 -0.0000260 0.0001000 -0.0000839 0.0000732 -0.0000066 0.0006483 -0.0001707 0.0005428 -0.0002255 0.0004779 -0.0001580 0.0004387 -0.0001969 0.0000882
-0.0000078 0.0000116 -0.0000400 0.0002112 -0.0000455 0.0000911 0.0001106 0.0003497 -0.0000060 0.0003793 -0.0040166 0.0033762 0.0036987 -0.0056495 -0.0000309 0.0002449 0.0000131 0.0002368 -0.0000705 0.0004452 -0.0001057 0.0003202 0.0000717 0.0003422 -0.0000221 0.0004335 0.0000203 0.0005304 -0.0001491 0.0004290 -0.0000251 0.0001011 -0.0000839 0.0000729 -0.0000025 0.0006583 -0.0001703 0.0005482 -0.0002211 0.0004829 -0.0001573 0.0004467 -0.0002013 0.0000883
-0.0000115 0.0000122 -0.0000516 0.0002230 -0.0000495 0.0000940 0.0001158 0.0003445 -0.0000072 0.0003760 -0.0039286 0.0033351 0.0036686 -0.0056040 -0.0000309 0.0002403 0.0000138 0.0002373 -0.0000715 0.0004467 -0.0001060 0.0003296 0.0000702 0.0003247 -0.0000237 0.0004353 0.0000192 0.0005253 -0.0001509 0.0004341 -0.0000240 0.0001040 -0.0000840 0.0000775 -0.0000012 0.0006661 -0.0001708 0.0005571 -0.0002184 0.0004885 -0.0001554 0.0004555 -0.0002008 0.0001032
-0.0000118 0.0000109 -0.0000595 0.0002224 -0.0000531 0.0000961 0.0001163 0.0003296 -0.0000101 0.0003735 -0.0037684 0.0034151 0.0035577 -0.0054302 -0.0000345 0.0002392 0.0000140 0.0002366 -0.0000732 0.0004493 -0.0001071 0.0003374 0.0000645 0.0003005 -0.0000266 0.0004376 0.0000159 0.0005074 -0.0001519 0.0004363 -0.0000234 0.0001051 -0.0000840 0.0000832 -0.0000010 0.0006699 -0.0001714 0.0005630 -0.0002166 0.0004923 -0.0001521 0.0004601 -0.0001994 0.0001185
-0.0000177 0.0000058 -0.0000511 0.0002300 -0.0000564 0.0000982 0.0000974 0.0003147 -0.0000122 0.0003673 -0.0034796 0.0032835 0.0034242 -0.0052202 -0.0000402 0.0002406 0.0000151 0.0002341 -0.0000742 0.0004509 -0.0001074 0.0003319 0.0000570 0.0002716 -0.0000291 0.0004358 0.0000132 0.0004897 -0.0001539 0.0004316 -0.0000224 0.0000983 -0.0000837 0.0000783 0.0000005 0.0006652 -0.0001714 0.0005455 -0.0002139 0.0004834 -0.0001486 0.0004449 -0.0001975 0.0001136
-0.0000174 0.0000010 -0.0000519 0.0002207 -0.0000551 0.0000839 0.0001055 0.0002931 -0.0000139 0.0003576 -0.0032315 0.0032249 0.0032902 -0.0050101 -0.0000371 0.0002249 0.0000172 0.0002287 -0.0000744 0.0004477 -0.0001055 0.0003028 0.0000525 0.0002442 -0.0000307 0.0004279 0.0000108 0.0004701 -0.0001545 0.0004151 -0.0000193 0.0000809 -0.0000832 0.0000615 0.0000055 0.0006572 -0.0001706 0.0005148 -0.0002098 0.0004660 -0.0001440 0.0004236 -0.0001952 0.0001025
-0.0000152 -0.0000027 -0.0000355 0.0001785 -0.0000599 0.0000681 0.0001019 0.0002750 -0.0000148 0.0003453 -0.0030366 0.0032085 0.0031834 -0.0048434 -0.0000277 0.0002099 0.0000206 0.0002266 -0.0000748 0.0004454 -0.0001049 0.0002905 0.0000481 0.0002214 -0.0000321 0.0004235 0.0000086 0.0004528 -0.0001540 0.0004057 -0.0000175 0.0000725 -0.0000825 0.0000578 0.0000108 0.0006607 -0.0001712 0.0005070 -0.0002044 0.0004615 -0.0001416 0.0004174 -0.0001928 0.0001045
-0.0000138 -0.0000066 -0.0000620 0.0001973 -0.0000519 0.0000533 0.0001162 0.0002523 -0.0000153 0.0003375 -0.0028604 0.0031809 0.0030806 -0.0046831 -0.0000295 0.0002051 0.0000232 0.0002250 -0.0000753 0.0004446 -0.0001050 0.0002873 0.0000427 0.0002005 -0.0000340 0.0004216 0.0000063 0.0004365 -0.0001527 0.0004000 -0.0000152 0.0000688 -0.0000822 0.0000581 0.0000146 0.0006631 -0.0001727 0.0005040 -0.0001991 0.0004600 -0.0001383 0.0004135 -0.0001911 0.0001103
-0.0000161 -0.0000080 -0.0000267 0.0001634 -0.0000609 0.0000596 0.0001041 0.0002444 -0.0000179 0.0003327 -0.0026875 0.0031319 0.0029717 -0.0045135 -0.0000257 0.0001943 0.0000253 0.0002222 -0.0000759 0.0004439 -0.0001051 0.0002882 0.0000352 0.0001812 -0.0000361 0.0004211 0.0000039 0.0004207 -0.0001528 0.0003985 -0.0000138 0.0000672 -0.0000813 0.0000618 0.0000161 0.0006639 -0.0001742 0.0005058 -0.0001943 0.0004603 -0.0001360 0.0004149 -0.0001886 0.0001207
-0.0000148 -0.0000117 -0.0000016 0.0001363 -0.0000530 0.0000537 0.0001107 0.0002279 -0.0000202 0.0003275 -0.0024666 0.0029985 0.0028432 -0.0043132 -0.0000254 0.0001902 0.0000263 0.0002190 -0.0000769 0.0004442 -0.0001060 0.0002901 0.0000301 0.0001606 -0.0000379 0.0004206 0.0000008 0.0004030 -0.0001524 0.0003973 -0.0000129 0.0000648 -0.0000807 0.0000656 0.0000161 0.0006615 -0.0001762 0.0005055 -0.0001909 0.0004594 -0.0001349 0.0004154 -0.0001852 0.0001321
-0.0000129 -0.0000151 -0.0000051 0.0001593 -0.0000474 0.0000477 0.0000952 0.0002188 -0.0000221 0.0003256 -0.0022367 0.0028087 0.0027077 -0.0041025 -0.0000293 0.0001881 0.0000267 0.0002156 -0.0000778 0.0004447 -0.0001078 0.0002909 0.0000253 0.0001398 -0.0000401 0.0004207 -0.0000020 0.0003844 -0.0001510 0.0003935 -0.0000110 0.0000617 -0.0000802 0.0000696 0.0000166 0.0006578 -0.0001780 0.0005037 -0.0001879 0.0004566 -0.0001317 0.0004082 -0.0001809 0.0001390
-0.0000126 -0.0000165 0.0000129 0.0001273 -0.0000527 0.0000486 0.0000779 0.0002147 -0.0000222 0.0003187 -0.0019882 0.0026095 0.0025586 -0.0038709 -0.0000307 0.0001818 0.0000280 0.0002083 -0.0000786 0.0004415 -0.0001074 0.0002676 0.0000227 0.0001125 -0.0000417 0.0004142 -0.0000052 0.0003629 -0.0001489 0.0003777 -0.0000083 0.0000474 -0.0000795 0.0000591 0.0000186 0.0006459 -0.0001792 0.0004825 -0.0001845 0.0004437 -0.0001281 0.0003912 -0.0001765 0.0001386
-0.0000127 -0.0000165 0.0000196 0.0001124 -0.0000508 0.0000392 0.0000776 0.0002044 -0.0000234 0.0003099 -0.0017447 0.0023941 0.0024131 -0.0036455 -0.0000312 0.0001771 0.0000299 0.0002050 -0.0000787 0.0004395 -0.0001079 0.0002579 0.0000189 0.0000893 -0.0000435 0.0004101 -0.0000082 0.0003416 -0.0001467 0.0003679 -0.0000063 0.0000404 -0.0000784 0.0000566 0.0000224 0.0006423 -0.0001812 0.0004755 -0.0001800 0.0004379 -0.0001262 0.0003852 -0.0001719 0.0001447
-0.0000083 -0.0000237 0.0000427 0.0000785 -0.0000430 0.0000255 0.0000647 0.0001985 -0.0000274 0.0003061 -0.0015233 0.0021666 0.0022892 -0.0034541 -0.0000401 0.0001774 0.0000325 0.0002020 -0.0000784 0.0004379 -0.0001083 0.0002558 0.0000159 0.0000697 -0.0000451 0.0004089 -0.0000108 0.0003229 -0.0001440 0.0003633 -0.0000037 0.0000367 -0.0000774 0.0000564 0.0000251 0.0006410 -0.0001829 0.0004704 -0.0001755 0.0004343 -0.0001233 0.0003773 -0.0001680 0.0001504
-0.0000077 -0.0000258 0.0000553 0.0000543 -0.0000473 0.0000226 0.0000443 0.0001972 -0.0000292 0.0003013 -0.0013154 0.0019445 0.0021726 -0.0032747 -0.0000375 0.0001707 0.0000346 0.0001986 -0.0000795 0.0004375 -0.0001083 0.0002551 0.0000136 0.0000524 -0.0000467 0.0004081 -0.0000134 0.0003055 -0.0001422 0.0003602 -0.0000009 0.0000339 -0.0000770 0.0000590 0.0000262 0.0006385 -0.0001845 0.0004697 -0.0001715 0.0004319 -0.0001220 0.0003747 -0.0001642 0.0001589
-0.0000064 -0.0000292 0.0000235 0.0000739 -0.0000506 0.0000224 0.0000476 0.0001841 -0.0000295 0.0002970 -0.0011345 0.0017372 0.0020667 -0.0031120 -0.0000351 0.0001725 0.0000365 0.0001938 -0.0000808 0.0004367 -0.0001084 0.0002542 0.0000118 0.0000380 -0.0000484 0.0004077 -0.0000155 0.0002906 -0.0001400 0.0003568 0.0000013 0.0000313 -0.0000761 0.0000608 0.0000272 0.0006338 -0.0001864 0.0004673 -0.0001688 0.0004288 -0.0001201 0.0003707 -0.0001603 0.0001640
-0.0000068 -0.0000310 0.0000267 0.0000549 -0.0000536 0.0000306 0.0000278 0.0001836 -0.0000304 0.0002941 -0.0009616 0.0015404 0.0019754 -0.0029720 -0.0000342 0.0001703 0.0000383 0.0001902 -0.0000813 0.0004360 -0.0001095 0.0002535 0.0000095 0.0000258 -0.0000500 0.0004074 -0.0000172 0.0002766 -0.0001384 0.0003535 0.0000040 0.0000276 -0.0000752 0.0000621 0.0000284 0.0006291 -0.0001881 0.0004649 -0.0001663 0.0004262 -0.0001192 0.0003629 -0.0001567 0.0001669
-0.0000077 -0.0000313 0.0000262 0.0000507 -0.0000561 0.0000319 0.0000227 0.0001767 -0.0000296 0.0002908 -0.0007995 0.0013565 0.0018935 -0.0028468 -0.0000288 0.0001547 0.0000414 0.0001823 -0.0000808 0.0004314 -0.0001081 0.0002340 0.0000080 0.0000132 -0.0000505 0.0004014 -0.0000190 0.0002622 -0.0001353 0.0003395 0.0000078 0.0000139 -0.0000741 0.0000498 0.0000315 0.0006165 -0.0001890 0.0004406 -0.0001628 0.0004112 -0.0001168 0.0003424 -0.0001531 0.0001581
-0.0000099 -0.0000275 0.0000164 0.0000335 -0.0000525 0.0000205 0.0000352 0.0001558 -0.0000301 0.0002855 -0.0006338 0.0011507 0.0018138 -0.0027251 -0.0000257 0.0001499 0.0000447 0.0001786 -0.0000807 0.0004289 -0.0001068 0.0002258 0.0000067 0.0000010 -0.0000516 0.0003986 -0.0000208 0.0002499 -0.0001327 0.0003321 0.0000112 0.0000080 -0.0000730 0.0000480 0.0000348 0.0006151 -0.0001901 0.0004375 -0.0001591 0.0004087 -0.0001152 0.0003382 -0.0001502 0.0001617
-0.0000102 -0.0000297 0.0000251 0.0000279 -0.0000523 0.0000137 0.0000319 0.0001484 -0.0000311 0.0002830 -0.0004765 0.0009271 0.0017389 -0.0026108 -0.0000348 0.0001552 0.0000470 0.0001758 -0.0000800 0.0004288 -0.0001073 0.0002309 0.0000045 -0.0000102 -0.0000530 0.0003990 -0.0000222 0.0002401 -0.0001295 0.0003313 0.0000132 0.0000094 -0.0000722 0.0000520 0.0000359 0.0006143 -0.0001917 0.0004417 -0.0001568 0.0004111 -0.0001139 0.0003375 -0.0001478 0.0001682
-0.0000114 -0.0000292 0.0000533 -0.0000245 -0.0000564 0.0000239 0.0000262 0.0001455 -0.0000319 0.0002835 -0.0003458 0.0007322 0.0016709 -0.0025073 -0.0000424 0.0001575 0.0000481 0.0001725 -0.0000807 0.0004298 -0.0001082 0.0002395 0.0000038 -0.0000206 -0.0000549 0.0004008 -0.0000233 0.0002322 -0.0001278 0.0003330 0.0000140 0.0000126 -0.0000715 0.0000586 0.0000347 0.0006114 -0.0001937 0.0004506 -0.0001557 0.0004143 -0.0001131 0.0003412 -0.0001460 0.0001778
-0.0000123 -0.0000306 0.0000878 -0.0000796 -0.0000539 0.0000251 0.0000146 0.0001480 -0.0000320 0.0002836 -0.0002052 0.0005226 0.0016011 -0.0024012 -0.0000378 0.0001586 0.0000477 0.0001712 -0.0000813 0.0004315 -0.0001097 0.0002519 0.0000034 -0.0000337 -0.0000567 0.0004034 -0.0000244 0.0002243 -0.0001265 0.0003365 0.0000156 0.0000157 -0.0000705 0.0000649 0.0000324 0.0006089 -0.0001950 0.0004595 -0.0001561 0.0004183 -0.0001140 0.0003464 -0.0001439 0.0001870
-0.0000121 -0.0000322 0.0000936 -0.0000856 -0.0000504 0.0000263 0.0000103 0.0001364 -0.0000344 0.0002875 -0.0000607 0.0003097 0.0015206 -0.0022787 -0.0000365 0.0001590 0.0000474 0.0001681 -0.0000823 0.0004344 -0.0001108 0.0002627 0.0000002 -0.0000442 -0.0000588 0.0004068 -0.0000256 0.0002161 -0.0001256 0.0003405 0.0000163 0.0000190 -0.0000696 0.0000713 0.0000295 0.0006063 -0.0001969 0.0004686 -0.0001571 0.0004217 -0.0001148 0.0003483 -0.0001418 0.0001931
-0.0000161 -0.0000315 0.0001144 -0.0000990 -0.0000453 0.0000255 0.0000021 0.0001290 -0.0000344 0.0002874 0.0000998 0.0000812 0.0014386 -0.0021540 -0.0000365 0.0001577 0.0000477 0.0001603 -0.0000831 0.0004339 -0.0001103 0.0002510 -0.0000025 -0.0000562 -0.0000601 0.0004040 -0.0000268 0.0002054 -0.0001253 0.0003338 0.0000180 0.0000109 -0.0000689 0.0000614 0.0000299 0.0005932 -0.0001973 0.0004492 -0.0001583 0.0004107 -0.0001138 0.0003274 -0.0001392 0.0001806
-0.0000099 -0.0000250 0.0000779 -0.0000743 -0.0000411 0.0000185 0.0000061 0.0001275 -0.0000330 0.0002866 0.0001185 0.0000625 0.0014058 -0.0021044 -0.0000274 0.0001467 0.0000491 0.0001525 -0.0000842 0.0004313 -0.0001100 0.0002368 -0.0000030 -0.0000643 -0.0000614 0.0004003 -0.0000283 0.0001930 -0.0001230 0.0003252 0.0000201 0.0000035 -0.0000687 0.0000552 0.0000312 0.0005879 -0.0001976 0.0004449 -0.0001583 0.0004064 -0.0001124 0.0003211 -0.0001359 0.0001818
-0.0000087 -0.0000211 0.0000639 -0.0000693 -0.0000377 0.0000189 -0.0000121 0.0001345 -0.0000339 0.0002863 0.0001811 -0.0000212 0.0013562 -0.0020294 -0.0000262 0.0001466 0.0000507 0.0001492 -0.0000840 0.0004314 -0.0001104 0.0002427 -0.0000052 -0.0000723 -0.0000630 0.0004008 -0.0000300 0.0001822 -0.0001216 0.0003255 0.0000212 0.0000050 -0.0000684 0.0000573 0.0000306 0.0005890 -0.0001986 0.0004517 -0.0001587 0.0004119 -0.0001122 0.0003225 -0.0001331 0.0001914
-0.0000113 -0.0000189 0.0000439 -0.0000421 -0.0000249 0.0000213 -0.0000122 0.0001311 -0.0000351 0.0002897 0.0002841 -0.0001715 0.0012828 -0.0019182 -0.0000395 0.0001558 0.0000507 0.0001463 -0.0000848 0.0004339 -0.0001113 0.0002547 -0.0000088 -0.0000830 -0.0000649 0.0004032 -0.0000316 0.0001708 -0.0001214 0.0003301 0.0000223 0.0000104 -0.0000685 0.0000629 0.0000276 0.0005895 -0.0001996 0.0004633 -0.0001613 0.0004197 -0.0001132 0.0003302 -0.0001305 0.0002038
-0.0000122 -0.0000185 0.0000762 -0.0000546 -0.0000285 0.0000341 -0.0000296 0.0001342 -0.0000362 0.0002925 0.0003788 -0.0003164 0.0012321 -0.0018417 -0.0000387 0.0001577 0.0000500 0.0001435 -0.0000865 0.0004380 -0.0001127 0.0002718 -0.0000109 -0.0000905 -0.0000674 0.0004076 -0.0000327 0.0001633 -0.0001222 0.0003379 0.0000209 0.0000192 -0.0000684 0.0000718 0.0000224 0.0005896 -0.0002004 0.0004784 -0.0001650 0.0004286 -0.0001132 0.0003351 -0.0001288 0.0002122
-0.0000113 -0.0000191 0.0000560 -0.0000456 -0.0000265 0.0000423 -0.0000315 0.0001313 -0.0000391 0.0002996 0.0003290 -0.0002576 0.0012406 -0.0018551 -0.0000433 0.0001642 0.0000475 0.0001407 -0.0000888 0.0004429 -0.0001160 0.0002885 -0.0000082 -0.0000757 -0.0000685 0.0004125 -0.0000306 0.0001742 -0.0001227 0.0003450 0.0000189 0.0000251 -0.0000688 0.0000777 0.0000156 0.0005857 -0.0002016 0.0004934 -0.0001709 0.0004370 -0.0001148 0.0003359 -0.0001327 0.0002061
-0.0000111 -0.0000163 0.0000219 -0.0000117 -0.0000321 0.0000542 -0.0000328 0.0001502 -0.0000408 0.0003111 0.0001599 -0.0001555 0.0013439 -0.0020133 -0.0000508 0.0001734 0.0000437 0.0001357 -0.0000914 0.0004466 -0.0001188 0.0003008 -0.0000014 -0.0000509 -0.0000691 0.0004181 -0.0000253 0.0002008 -0.0001242 0.0003515 0.0000176 0.0000267 -0.0000698 0.0000763 0.0000093 0.0005749 -0.0002019 0.0004926 -0.0001769 0.0004367 -0.0001167 0.0003207 -0.0001375 0.0001777
-0.0000109 -0.0000170 0.0000350 -0.0000121 -0.0000297 0.0000529 -0.0000329 0.0001679 -0.0000392 0.0003126 -0.0000202 0.0000297 0.0014392 -0.0021592 -0.0000482 0.0001704 0.0000410 0.0001212 -0.0000948 0.0004440 -0.0001199 0.0002804 0.0000062 -0.0000350 -0.0000689 0.0004150 -0.0000196 0.0002271 -0.0001263 0.0003447 0.0000169 0.0000153 -0.0000701 0.0000601 0.0000036 0.0005540 -0.0002014 0.0004733 -0.0001826 0.0004245 -0.0001200 0.0002990 -0.0001418 0.0001430
-0.0000118 -0.0000201 0.0000402 -0.0000142 -0.0000267 0.0000452 -0.0000285 0.0001668 -0.0000410 0.0003120 -0.0001281 0.0001812 0.0014965 -0.0022471 -0.0000428 0.0001601 0.0000405 0.0001139 -0.0000953 0.0004416 -0.0001208 0.0002763 0.0000086 -0.0000252 -0.0000688 0.0004140 -0.0000147 0.0002482 -0.0001268 0.0003433 0.0000168 0.0000131 -0.0000702 0.0000570 0.0000006 0.0005538 -0.0002011 0.0004776 -0.0001866 0.0004267 -0.0001236 0.0002989 -0.0001454 0.0001272
-0.0000129 -0.0000259 0.0000261 -0.0000077 -0.0000285 0.0000517 -0.0000165 0.0001475 -0.0000430 0.0003145 -0.0001508 0.0002006 0.0015150 -0.0022756 -0.0000431 0.0001583 0.0000406 0.0001138 -0.0000966 0.0004445 -0.0001218 0.0002868 0.0000094 -0.0000224 -0.0000692 0.0004168 -0.0000106 0.0002659 -0.0001275 0.0003480 0.0000158 0.0000198 -0.0000702 0.0000607 -0.0000031 0.0005613 -0.0002009 0.0004901 -0.0001916 0.0004377 -0.0001229 0.0003009 -0.0001494 0.0001203
-0.0000166 -0.0000282 -0.0000225 0.0000333 -0.0000329 0.0000587 -0.0000177 0.0001409 -0.0000439 0.0003172 -0.0001306 0.0001891 0.0014933 -0.0022422 -0.0000481 0.0001632 0.0000394 0.0001150 -0.0000990 0.0004498 -0.0001241 0.0003041 0.0000079 -0.0000256 -0.0000706 0.0004213 -0.0000078 0.0002790 -0.0001296 0.0003567 0.0000142 0.0000295 -0.0000703 0.0000688 -0.0000082 0.0005680 -0.0002014 0.0005086 -0.0001983 0.0004519 -0.0001222 0.0003108 -0.0001520 0.0001217
-0.0000216 -0.0000320 -0.0000336 0.0000488 -0.0000299 0.0000668 -0.0000155 0.0001222 -0.0000467 0.0003220 -0.0000883 0.0001600 0.0014398 -0.0021598 -0.0000565 0.0001747 0.0000369 0.0001170 -0.0001012 0.0004561 -0.0001276 0.0003243 0.0000045 -0.0000299 -0.0000731 0.0004270 -0.0000057 0.0002866 -0.0001307 0.0003654 0.0000112 0.0000401 -0.0000714 0.0000789 -0.0000149 0.0005742 -0.0002024 0.0005277 -0.0002064 0.0004658 -0.0001207 0.0003196 -0.0001539 0.0001262
-0.0000243 -0.0000353 -0.0000569 0.0000557 -0.0000318 0.0000773 -0.0000216 0.0001188 -0.0000487 0.0003264 -0.0000247 0.0001081 0.0013799 -0.0020675 -0.0000541 0.0001722 0.0000340 0.0001208 -0.0001036 0.0004643 -0.0001308 0.0003442 0.0000035 -0.0000408 -0.0000755 0.0004327 -0.0000047 0.0002910 -0.0001345 0.0003758 0.0000084 0.0000487 -0.0000725 0.0000844 -0.0000203 0.0005785 -0.0002028 0.0005326 -0.0002143 0.0004723 -0.0001187 0.0003137 -0.0001544 0.0001203
-0.0000248 -0.0000393 -0.0000528 0.0000512 -0.0000252 0.0000680 -0.0000082 0.0000995 -0.0000512 0.0003276 0.0000590 0.0000405 0.0013096 -0.0019597 -0.0000534 0.0001693 0.0000331 0.0001196 -0.0001051 0.0004674 -0.0001315 0.0003342 0.0000017 -0.0000565 -0.0000771 0.0004312 -0.0000045 0.0002895 -0.0001359 0.0003709 0.0000066 0.0000458 -0.0000738 0.0000762 -0.0000227 0.0005781 -0.0002021 0.0005172 -0.0002206 0.0004672 -0.0001151 0.0002952 -0.0001539 0.0001049
-0.0000249 -0.0000410 -0.0000471 0.0000410 -0.0000259 0.0000617 0.0000025 0.0000814 -0.0000531 0.0003246 0.0001498 -0.0000427 0.0012263 -0.0018323 -0.0000546 0.0001708 0.0000331 0.0001232 -0.0001064 0.0004709 -0.0001327 0.0003333 -0.0000007 -0.0000710 -0.0000791 0.0004320 -0.0000042 0.0002864 -0.0001378 0.0003704 0.0000053 0.0000484 -0.0000752 0.0000775 -0.0000244 0.0005902 -0.0002020 0.0005225 -0.0002260 0.0004750 -0.0001135 0.0002933 -0.0001531 0.0001061
-0.0000259 -0.0000442 -0.0000334 0.0000339 -0.0000255 0.0000640 -0.0000016 0.0000743 -0.0000541 0.0003243 0.0002227 -0.0001038 0.0011571 -0.0017264 -0.0000596 0.0001759 0.0000328 0.0001301 -0.0001079 0.0004771 -0.0001347 0.0003451 -0.0000034 -0.0000840 -0.0000804 0.0004355 -0.0000040 0.0002838 -0.0001400 0.0003764 0.0000035 0.0000577 -0.0000763 0.0000835 -0.0000270 0.0006050 -0.0002025 0.0005332 -0.0002312 0.0004879 -0.0001126 0.0002935 -0.0001528 0.0001122
-0.0000291 -0.0000441 -0.0000544 0.0000558 -0.0000264 0.0000737 -0.0000039 0.0000694 -0.0000546 0.0003253 0.0002815 -0.0001453 0.0010952 -0.0016317 -0.0000514 0.0001668 0.0000321 0.0001381 -0.0001098 0.0004838 -0.0001366 0.0003615 -0.0000039 -0.0000988 -0.0000821 0.0004403 -0.0000043 0.0002814 -0.0001431 0.0003855 0.0000015 0.0000697 -0.0000776 0.0000936 -0.0000314 0.0006212 -0.0002033 0.0005499 -0.0002365 0.0005032 -0.0001088 0.0002964 -0.0001526 0.0001236
-0.0000289 -0.0000463 -0.0000637 0.0000919 -0.0000210 0.0000804 -0.0000001 0.0000521 -0.0000537 0.0003265 0.0003417 -0.0001863 0.0010203 -0.0015179 -0.0000458 0.0001742 0.0000303 0.0001465 -0.0001124 0.0004927 -0.0001391 0.0003812 -0.0000054 -0.0001120 -0.0000844 0.0004468 -0.0000054 0.0002794 -0.0001454 0.0003951 -0.0000011 0.0000824 -0.0000788 0.0001039 -0.0000372 0.0006372 -0.0002036 0.0005657 -0.0002424 0.0005175 -0.0001073 0.0003002 -0.0001526 0.0001358
-0.0000275 -0.0000477 -0.0000738 0.0001357 -0.0000178 0.0000868 0.0000013 0.0000454 -0.0000545 0.0003320 0.0003971 -0.0002254 0.0009487 -0.0014090 -0.0000478 0.0001868 0.0000286 0.0001544 -0.0001153 0.0005021 -0.0001415 0.0003977 -0.0000085 -0.0001200 -0.0000869 0.0004532 -0.0000059 0.0002769 -0.0001487 0.0004039 -0.0000035 0.0000907 -0.0000809 0.0001087 -0.0000416 0.0006473 -0.0002040 0.0005646 -0.0002481 0.0005215 -0.0001047 0.0002862 -0.0001513 0.0001322
-0.0000262 -0.0000480 -0.0001006 0.0001514 -0.0000178 0.0000892 -0.0000118 0.0000484 -0.0000538 0.0003313 0.0004547 -0.0002606 0.0008849 -0.0013121 -0.0000478 0.0001861 0.0000289 0.0001585 -0.0001174 0.0005056 -0.0001429 0.0003863 -0.0000095 -0.0001351 -0.0000882 0.0004514 -0.0000071 0.0002710 -0.0001516 0.0003986 -0.0000049 0.0000870 -0.0000827 0.0000992 -0.0000417 0.0006505 -0.0002032 0.0005454 -0.0002529 0.0005156 -0.0001006 0.0002629 -0.0001498 0.0001218
-0.0000241 -0.0000475 -0.0001084 0.0001604 -0.0000170 0.0000863 -0.0000141 0.0000408 -0.0000535 0.0003280 0.0005103 -0.0002944 0.0008110 -0.0012002 -0.0000425 0.0001835 0.0000302 0.0001682 -0.0001183 0.0005102 -0.0001437 0.0003882 -0.0000119 -0.0001472 -0.0000892 0.0004525 -0.0000078 0.0002651 -0.0001528 0.0003989 -0.0000062 0.0000916 -0.0000844 0.0001018 -0.0000416 0.0006685 -0.0002030 0.0005511 -0.0002556 0.0005235 -0.0000980 0.0002573 -0.0001484 0.0001274
-0.0000251 -0.0000476 -0.0000748 0.0001219 -0.0000191 0.0000875 -0.0000098 0.0000362 -0.0000548 0.0003304 0.0005629 -0.0003312 0.0007516 -0.0011100 -0.0000444 0.0001929 0.0000306 0.0001811 -0.0001196 0.0005174 -0.0001451 0.0004034 -0.0000150 -0.0001563 -0.0000902 0.0004574 -0.0000088 0.0002611 -0.0001546 0.0004057 -0.0000082 0.0001037 -0.0000857 0.0001095 -0.0000428 0.0006890 -0.0002032 0.0005640 -0.0002577 0.0005369 -0.0000970 0.0002579 -0.0001479 0.0001392
-0.0000272 -0.0000470 -0.0000692 0.0001087 -0.0000184 0.0000894 0.0000013 0.0000262 -0.0000566 0.0003366 0.0006064 -0.0003601 0.0006945 -0.0010234 -0.0000479 0.0002009 0.0000301 0.0001935 -0.0001224 0.0005256 -0.0001474 0.0004236 -0.0000187 -0.0001676 -0.0000915 0.0004640 -0.0000094 0.0002576 -0.0001569 0.0004169 -0.0000103 0.0001181 -0.0000867 0.0001208 -0.0000462 0.0007077 -0.0002034 0.0005821 -0.0002609 0.0005513 -0.0000960 0.0002639 -0.0001470 0.0001545
-0.0000289 -0.0000443 -0.0000689 0.0001166 -0.0000286 0.0001033 0.0000068 0.0000139 -0.0000579 0.0003409 0.0006516 -0.0003924 0.0006469 -0.0009509 -0.0000439 0.0002085 0.0000285 0.0002063 -0.0001250 0.0005347 -0.0001499 0.0004468 -0.0000218 -0.0001774 -0.0000938 0.0004727 -0.0000105 0.0002548 -0.0001599 0.0004299 -0.0000133 0.0001330 -0.0000875 0.0001326 -0.0000502 0.0007243 -0.0002038 0.0005994 -0.0002642 0.0005643 -0.0000943 0.0002677 -0.0001463 0.0001709
-0.0000322 -0.0000415 -0.0000648 0.0001183 -0.0000356 0.0001175 0.0000143 0.0000097 -0.0000603 0.0003492 0.0007062 -0.0004400 0.0005923 -0.0008683 -0.0000515 0.0002235 0.0000266 0.0002198 -0.0001271 0.0005443 -0.0001523 0.0004686 -0.0000251 -0.0001894 -0.0000953 0.0004808 -0.0000120 0.0002500 -0.0001623 0.0004427 -0.0000160 0.0001470 -0.0000893 0.0001448 -0.0000536 0.0007411 -0.0002039 0.0006119 -0.0002678 0.0005748 -0.0000916 0.0002672 -0.0001440 0.0001851
-0.0000346 -0.0000421 -0.0000444 0.0001097 -0.0000372 0.0001250 0.0000254 -0.0000026 -0.0000584 0.0003489 0.0009146 -0.0007028 0.0004742 -0.0006904 -0.0000432 0.0002224 0.0000267 0.0002300 -0.0001291 0.0005501 -0.0001524 0.0004644 -0.0000312 -0.0002269 -0.0000976 0.0004817 -0.0000166 0.0002252 -0.0001637 0.0004408 -0.0000164 0.0001498 -0.0000907 0.0001419 -0.0000526 0.0007504 -0.0002032 0.0005961 -0.0002700 0.0005689 -0.0000851 0.0002496 -0.0001356 0.0001952
-0.0000391 -0.0000431 -0.0000238 0.0000759 -0.0000334 0.0001146 0.0000157 -0.0000289 -0.0000578 0.0003414 0.0011857 -0.0009074 0.0002786 -0.0003972 -0.0000309 0.0002119 0.0000303 0.0002419 -0.0001291 0.0005532 -0.0001507 0.0004483 -0.0000415 -0.0002705 -0.0000993 0.0004775 -0.0000235 0.0001866 -0.0001636 0.0004314 -0.0000165 0.0001503 -0.0000909 0.0001383 -0.0000482 0.0007674 -0.0002021 0.0005881 -0.0002690 0.0005668 -0.0000786 0.0002439 -0.0001264 0.0002186
-0.0000386 -0.0000429 -0.0000388 0.0000754 -0.0000375 0.0001180 0.0000132 -0.0000475 -0.0000593 0.0003407 0.0014257 -0.0011479 0.0001253 -0.0001683 -0.0000294 0.0002187 0.0000355 0.0002649 -0.0001273 0.0005607 -0.0001495 0.0004623 -0.0000518 -0.0003005 -0.0001012 0.0004807 -0.0000306 0.0001512 -0.0001629 0.0004341 -0.0000167 0.0001617 -0.0000921 0.0001469 -0.0000417 0.0007976 -0.0002016 0.0005954 -0.0002662 0.0005760 -0.0000715 0.0002452 -0.0001186 0.0002483
-0.0000364 -0.0000423 -0.0000566 0.0000720 -0.0000400 0.0001243 0.0000122 -0.0000513 -0.0000591 0.0003443 0.0015675 -0.0013345 0.0000288 -0.0000242 -0.0000360 0.0002350 0.0000375 0.0002851 -0.0001276 0.0005701 -0.0001497 0.0004832 -0.0000567 -0.0003197 -0.0001032 0.0004871 -0.0000358 0.0001243 -0.0001634 0.0004427 -0.0000181 0.0001773 -0.0000930 0.0001591 -0.0000399 0.0008173 -0.0002013 0.0006093 -0.0002646 0.0005877 -0.0000647 0.0002479 -0.0001127 0.0002788
-0.0000349 -0.0000403 -0.0000508 0.0000871 -0.0000392 0.0001307 0.0000143 -0.0000488 -0.0000581 0.0003487 0.0016059 -0.0013689 -0.0000176 0.0000452 -0.0000442 0.0002555 0.0000369 0.0002990 -0.0001290 0.0005780 -0.0001512 0.0005063 -0.0000601 -0.0003289 -0.0001049 0.0004949 -0.0000407 0.0001050 -0.0001646 0.0004544 -0.0000201 0.0001917 -0.0000942 0.0001732 -0.0000414 0.0008288 -0.0002010 0.0006253 -0.0002641 0.0005971 -0.0000611 0.0002528 -0.0001072 0.0003075
-0.0000361 -0.0000366 -0.0000074 0.0000598 -0.0000436 0.0001506 0.0000097 -0.0000364 -0.0000581 0.0003558 0.0015965 -0.0013676 -0.0000204 0.0000492 -0.0000389 0.0002668 0.0000355 0.0003113 -0.0001303 0.0005852 -0.0001530 0.0005271 -0.0000625 -0.0003305 -0.0001062 0.0005022 -0.0000444 0.0000925 -0.0001671 0.0004661 -0.0000232 0.0002057 -0.0000954 0.0001862 -0.0000446 0.0008380 -0.0002012 0.0006400 -0.0002638 0.0006032 -0.0000594 0.0002553 -0.0001033 0.0003313
-0.0000346 -0.0000347 -0.0000077 0.0000560 -0.0000483 0.0001646 -0.0000026 -0.0000107 -0.0000583 0.0003649 0.0015677 -0.0013486 -0.0000021 0.0000216 -0.0000378 0.0002731 0.0000347 0.0003218 -0.0001318 0.0005919 -0.0001544 0.0005399 -0.0000625 -0.0003314 -0.0001064 0.0005075 -0.0000472 0.0000849 -0.0001691 0.0004728 -0.0000248 0.0002117 -0.0000964 0.0001870 -0.0000449 0.0008380 -0.0002007 0.0006305 -0.0002636 0.0005965 -0.0000560 0.0002356 -0.0000991 0.0003316
-0.0000300 -0.0000350 0.0000160 0.0000482 -0.0000448 0.0001649 -0.0000037 -0.0000027 -0.0000578 0.0003672 0.0015457 -0.0013346 0.0000200 -0.0000121 -0.0000376 0.0002776 0.0000350 0.0003283 -0.0001325 0.0005917 -0.0001536 0.0005235 -0.0000631 -0.0003306 -0.0001059 0.0005059 -0.0000496 0.0000773 -0.0001688 0.0004652 -0.0000260 0.0002084 -0.0000964 0.0001792 -0.0000440 0.0008364 -0.0001992 0.0006200 -0.0002622 0.0005867 -0.0000535 0.0002221 -0.0000956 0.0003351
-0.0000288 -0.0000323 0.0000017 0.0000628 -0.0000444 0.0001668 0.0000014 -0.0000010 -0.0000566 0.0003691 0.0015139 -0.0013174 0.0000421 -0.0000454 -0.0000368 0.0002842 0.0000353 0.0003383 -0.0001332 0.0005944 -0.0001543 0.0005300 -0.0000633 -0.0003292 -0.0001053 0.0005087 -0.0000508 0.0000733 -0.0001703 0.0004694 -0.0000272 0.0002140 -0.0000970 0.0001821 -0.0000428 0.0008420 -0.0001991 0.0006253 -0.0002598 0.0005873 -0.0000520 0.0002206 -0.0000932 0.0003466
-0.0000279 -0.0000330 0.0000301 0.0000475 -0.0000374 0.0001685 0.0000037 0.0000070 -0.0000548 0.0003729 0.0014841 -0.0012985 0.0000634 -0.0000772 -0.0000399 0.0002957 0.0000347 0.0003474 -0.0001334 0.0005972 -0.0001558 0.0005436 -0.0000641 -0.0003271 -0.0001050 0.0005128 -0.0000519 0.0000717 -0.0001711 0.0004766 -0.0000292 0.0002231 -0.0000974 0.0001875 -0.0000437 0.0008457 -0.0001986 0.0006339 -0.0002577 0.0005888 -0.0000507 0.0002218 -0.0000911 0.0003585
-0.0000272 -0.0000354 0.0000267 0.0000520 -0.0000356 0.0001752 0.0000082 0.0000070 -0.0000563 0.0003787 0.0014594 -0.0012831 0.0001007 -0.0001337 -0.0000355 0.0003006 0.0000327 0.0003555 -0.0001340 0.0006004 -0.0001575 0.0005599 -0.0000642 -0.0003256 -0.0001052 0.0005182 -0.0000526 0.0000714 -0.0001712 0.0004845 -0.0000325 0.0002341 -0.0000980 0.0001962 -0.0000456 0.0008462 -0.0001983 0.0006463 -0.0002571 0.0005913 -0.0000477 0.0002264 -0.0000893 0.0003721
-0.0000276 -0.0000369 0.0000632 0.0000163 -0.0000399 0.0001818 0.0000118 0.0000075 -0.0000554 0.0003829 0.0014327 -0.0012659 0.0001276 -0.0001739 -0.0000363 0.0003127 0.0000305 0.0003619 -0.0001357 0.0006044 -0.0001601 0.0005761 -0.0000666 -0.0003174 -0.0001052 0.0005235 -0.0000529 0.0000730 -0.0001717 0.0004927 -0.0000363 0.0002430 -0.0000991 0.0002043 -0.0000478 0.0008437 -0.0001978 0.0006559 -0.0002573 0.0005925 -0.0000490 0.0002333 -0.0000882 0.0003836
-0.0000298 -0.0000371 0.0000937 -0.0000025 -0.0000467 0.0001874 -0.0000010 0.0000294 -0.0000588 0.0003915 0.0014026 -0.0012476 0.0001588 -0.0002203 -0.0000384 0.0003181 0.0000284 0.0003679 -0.0001369 0.0006078 -0.0001624 0.0005893 -0.0000663 -0.0003095 -0.0001047 0.0005281 -0.0000527 0.0000757 -0.0001742 0.0005029 -0.0000400 0.0002506 -0.0001000 0.0002096 -0.0000486 0.0008398 -0.0001976 0.0006559 -0.0002571 0.0005888 -0.0000482 0.0002265 -0.0000864 0.0003821
-0.0000287 -0.0000406 0.0000774 -0.0000054 -0.0000473 0.0001851 0.0000047 0.0000261 -0.0000601 0.0003939 0.0013861 -0.0012367 0.0001837 -0.0002575 -0.0000366 0.0003115 0.0000272 0.0003696 -0.0001372 0.0006056 -0.0001625 0.0005739 -0.0000673 -0.0003060 -0.0001038 0.0005262 -0.0000529 0.0000762 -0.0001738 0.0004976 -0.0000428 0.0002475 -0.0001000 0.0002029 -0.0000481 0.0008304 -0.0001966 0.0006486 -0.0002561 0.0005797 -0.0000461 0.0002222 -0.0000855 0.0003835
-0.0000296 -0.0000426 0.0000823 -0.0000176 -0.0000480 0.0001868 0.0000109 0.0000274 -0.0000595 0.0003949 0.0013711 -0.0012318 0.0002083 -0.0002941 -0.0000327 0.0003157 0.0000262 0.0003760 -0.0001371 0.0006059 -0.0001627 0.0005755 -0.0000673 -0.0003009 -0.0001028 0.0005272 -0.0000524 0.0000782 -0.0001730 0.0004985 -0.0000453 0.0002514 -0.0001002 0.0002038 -0.0000474 0.0008286 -0.0001956 0.0006517 -0.0002540 0.0005782 -0.0000450 0.0002248 -0.0000844 0.0003903
-0.0000316 -0.0000430 0.0000768 -0.0000182 -0.0000500 0.0001914 0.0000158 0.0000397 -0.0000586 0.0003985 0.0013509 -0.0012258 0.0002461 -0.0003504 -0.0000409 0.0003273 0.0000242 0.0003835 -0.0001374 0.0006074 -0.0001639 0.0005837 -0.0000683 -0.0002959 -0.0001024 0.0005295 -0.0000525 0.0000814 -0.0001735 0.0005043 -0.0000482 0.0002578 -0.0001004 0.0002060 -0.0000474 0.0008262 -0.0001950 0.0006548 -0.0002524 0.0005779 -0.0000443 0.0002277 -0.0000839 0.0003973
-0.0000325 -0.0000450 0.0000549 0.0000020 -0.0000484 0.0001905 0.0000099 0.0000428 -0.0000581 0.0004007 0.0013298 -0.0012123 0.0002704 -0.0003867 -0.0000398 0.0003325 0.0000225 0.0003892 -0.0001372 0.0006083 -0.0001647 0.0005936 -0.0000665 -0.0002945 -0.0001024 0.0005329 -0.0000520 0.0000847 -0.0001746 0.0005120 -0.0000516 0.0002652 -0.0001007 0.0002104 -0.0000483 0.0008240 -0.0001946 0.0006615 -0.0002523 0.0005792 -0.0000441 0.0002336 -0.0000833 0.0004051
-0.0000321 -0.0000490 0.0000643 -0.0000005 -0.0000494 0.0001975 0.0000038 0.0000471 -0.0000564 0.0004019 0.0013110 -0.0012020 0.0002944 -0.0004226 -0.0000474 0.0003499 0.0000198 0.0003949 -0.0001374 0.0006100 -0.0001662 0.0006030 -0.0000678 -0.0002885 -0.0001028 0.0005366 -0.0000517 0.0000882 -0.0001756 0.0005188 -0.0000557 0.0002727 -0.0001019 0.0002149 -0.0000487 0.0008198 -0.0001942 0.0006657 -0.0002513 0.0005784 -0.0000425 0.0002367 -0.0000833 0.0004127
-0.0000288 -0.0000538 0.0000799 -0.0000160 -0.0000448 0.0001943 -0.0000086 0.0000592 -0.0000551 0.0004037 0.0012913 -0.0011889 0.0003205 -0.0004623 -0.0000551 0.0003593 0.0000177 0.0003999 -0.0001381 0.0006118 -0.0001680 0.0006106 -0.0000678 -0.0002837 -0.0001025 0.0005384 -0.0000517 0.0000918 -0.0001781 0.0005266 -0.0000595 0.0002788 -0.0001029 0.0002186 -0.0000496 0.0008168 -0.0001938 0.0006690 -0.0002512 0.0005781 -0.0000411 0.0002388 -0.0000832 0.0004180
-0.0000265 -0.0000593 0.0000706 -0.0000171 -0.0000432 0.0001945 -0.0000018 0.0000499 -0.0000543 0.0004052 0.0012789 -0.0011807 0.0003360 -0.0004863 -0.0000533 0.0003602 0.0000156 0.0004019 -0.0001385 0.0006100 -0.0001681 0.0005973 -0.0000685 -0.0002824 -0.0001023 0.0005353 -0.0000517 0.0000930 -0.0001788 0.0005207 -0.0000609 0.0002721 -0.0001033 0.0002042 -0.0000480 0.0008026 -0.0001927 0.0006459 -0.0002504 0.0005629 -0.0000381 0.0002234 -0.0000821 0.0004084
-0.0000236 -0.0000613 0.0000566 -0.0000196 -0.0000367 0.0001809 -0.0000086 0.0000567 -0.0000555 0.0004047 0.0012681 -0.0011742 0.0003520 -0.0005113 -0.0000608 0.0003668 0.0000150 0.0004062 -0.0001377 0.0006078 -0.0001686 0.0005928 -0.0000704 -0.0002817 -0.0001017 0.0005332 -0.0000515 0.0000942 -0.0001805 0.0005207 -0.0000635 0.0002720 -0.0001031 0.0001985 -0.0000454 0.0007984 -0.0001914 0.0006412 -0.0002482 0.0005579 -0.0000357 0.0002236 -0.0000814 0.0004094
-0.0000221 -0.0000636 0.0000397 -0.0000155 -0.0000380 0.0001809 -0.0000161 0.0000679 -0.0000557 0.0004047 0.0012522 -0.0011630 0.0003924 -0.0005726 -0.0000660 0.0003741 0.0000136 0.0004111 -0.0001374 0.0006074 -0.0001688 0.0005967 -0.0000720 -0.0002798 -0.0001023 0.0005333 -0.0000507 0.0000979 -0.0001811 0.0005231 -0.0000661 0.0002753 -0.0001032 0.0001953 -0.0000434 0.0007952 -0.0001908 0.0006403 -0.0002465 0.0005566 -0.0000353 0.0002267 -0.0000824 0.0004094
-0.0000235 -0.0000640 0.0000194 -0.0000006 -0.0000391 0.0001826 -0.0000145 0.0000649 -0.0000579 0.0004061 0.0012279 -0.0011452 0.0004301 -0.0006298 -0.0000680 0.0003736 0.0000109 0.0004144 -0.0001375 0.0006067 -0.0001691 0.0006008 -0.0000684 -0.0002793 -0.0001025 0.0005324 -0.0000491 0.0001048 -0.0001817 0.0005259 -0.0000685 0.0002785 -0.0001029 0.0001919 -0.0000436 0.0007915 -0.0001900 0.0006434 -0.0002455 0.0005568 -0.0000354 0.0002350 -0.0000841 0.0004093
-0.0000253 -0.0000633 0.0000567 -0.0000165 -0.0000368 0.0001813 -0.0000148 0.0000629 -0.0000587 0.0004059 0.0011879 -0.0011177 0.0004824 -0.0007091 -0.0000678 0.0003745 0.0000080 0.0004155 -0.0001382 0.0006063 -0.0001704 0.0006074 -0.0000672 -0.0002723 -0.0001030 0.0005320 -0.0000466 0.0001151 -0.0001829 0.0005297 -0.0000719 0.0002812 -0.0001030 0.0001880 -0.0000454 0.0007868 -0.0001900 0.0006460 -0.0002460 0.0005560 -0.0000351 0.0002404 -0.0000865 0.0004056
-0.0000272 -0.0000611 0.0000667 -0.0000313 -0.0000376 0.0001799 -0.0000173 0.0000666 -0.0000602 0.0004075 0.0011257 -0.0010623 0.0005426 -0.0008003 -0.0000654 0.0003730 0.0000050 0.0004162 -0.0001385 0.0006053 -0.0001718 0.0006114 -0.0000662 -0.0002638 -0.0001037 0.0005308 -0.0000438 0.0001271 -0.0001844 0.0005331 -0.0000754 0.0002826 -0.0001034 0.0001820 -0.0000476 0.0007814 -0.0001901 0.0006470 -0.0002461 0.0005531 -0.0000357 0.0002460 -0.0000893 0.0004000
-0.0000252 -0.0000608 0.0000566 -0.0000157 -0.0000332 0.0001761 -0.0000082 0.0000601 -0.0000608 0.0004086 0.0010506 -0.0009805 0.0005929 -0.0008760 -0.0000680 0.0003756 0.0000016 0.0004157 -0.0001393 0.0006040 -0.0001731 0.0006120 -0.0000648 -0.0002530 -0.0001044 0.0005284 -0.0000415 0.0001397 -0.0001845 0.0005318 -0.0000779 0.0002779 -0.0001043 0.0001662 -0.0000470 0.0007687 -0.0001897 0.0006282 -0.0002460 0.0005405 -0.0000330 0.0002303 -0.0000917 0.0003751
-0.0000222 -0.0000600 0.0000727 -0.0000319 -0.0000325 0.0001667 0.0000008 0.0000534 -0.0000605 0.0004031 0.0010000 -0.0009316 0.0006443 -0.0009538 -0.0000670 0.0003686 -0.0000010 0.0004109 -0.0001397 0.0005976 -0.0001724 0.0005888 -0.0000615 -0.0002487 -0.0001044 0.0005199 -0.0000385 0.0001497 -0.0001847 0.0005211 -0.0000803 0.0002672 -0.0001046 0.0001465 -0.0000454 0.0007592 -0.0001884 0.0006154 -0.0002443 0.0005300 -0.0000349 0.0002301 -0.0000948 0.0003602
-0.0000233 -0.0000578 0.0000710 -0.0000322 -0.0000352 0.0001576 -0.0000047 0.0000548 -0.0000609 0.0003977 0.0009889 -0.0009205 0.0006622 -0.0009810 -0.0000688 0.0003648 -0.0000027 0.0004082 -0.0001392 0.0005932 -0.0001724 0.0005837 -0.0000618 -0.0002501 -0.0001048 0.0005141 -0.0000355 0.0001609 -0.0001850 0.0005175 -0.0000825 0.0002618 -0.0001058 0.0001354 -0.0000439 0.0007555 -0.0001884 0.0006123 -0.0002418 0.0005271 -0.0000346 0.0002358 -0.0000985 0.0003507
-0.0000229 -0.0000592 0.0000872 -0.0000611 -0.0000393 0.0001546 -0.0000112 0.0000560 -0.0000625 0.0003953 0.0009604 -0.0008972 0.0007033 -0.0010436 -0.0000656 0.0003574 -0.0000054 0.0004052 -0.0001386 0.0005890 -0.0001725 0.0005817 -0.0000631 -0.0002414 -0.0001054 0.0005090 -0.0000320 0.0001728 -0.0001849 0.0005151 -0.0000849 0.0002574 -0.0001063 0.0001233 -0.0000440 0.0007499 -0.0001883 0.0006103 -0.0002404 0.0005247 -0.0000355 0.0002426 -0.0001021 0.0003417
-0.0000224 -0.0000584 0.0000592 -0.0000417 -0.0000482 0.0001610 -0.0000239 0.0000593 -0.0000633 0.0003927 0.0009234 -0.0008691 0.0007465 -0.0011094 -0.0000650 0.0003545 -0.0000083 0.0004012 -0.0001395 0.0005862 -0.0001725 0.0005824 -0.0000616 -0.0002355 -0.0001064 0.0005050 -0.0000287 0.0001853 -0.0001849 0.0005150 -0.0000875 0.0002540 -0.0001062 0.0001125 -0.0000449 0.0007437 -0.0001888 0.0006101 -0.0002394 0.0005228 -0.0000343 0.0002512 -0.0001057 0.0003341
-0.0000210 -0.0000589 0.0001036 -0.0000730 -0.0000531 0.0001616 -0.0000244 0.0000604 -0.0000634 0.0003902 0.0008816 -0.0008383 0.0007669 -0.0011403 -0.0000697 0.0003540 -0.0000110 0.0003950 -0.0001410 0.0005834 -0.0001733 0.0005821 -0.0000615 -0.0002243 -0.0001080 0.0005013 -0.0000258 0.0001979 -0.0001860 0.0005147 -0.0000899 0.0002482 -0.0001067 0.0001013 -0.0000469 0.0007367 -0.0001894 0.0006078 -0.0002385 0.0005188 -0.0000356 0.0002605 -0.0001092 0.0003267
-0.0000211 -0.0000564 0.0001066 -0.0000940 -0.0000543 0.0001617 -0.0000203 0.0000580 -0.0000655 0.0003899 0.0008304 -0.0007976 0.0008125 -0.0012097 -0.0000755 0.0003555 -0.0000149 0.0003904 -0.0001419 0.0005801 -0.0001737 0.0005790 -0.0000599 -0.0002169 -0.0001094 0.0004977 -0.0000224 0.0002095 -0.0001882 0.0005145 -0.0000919 0.0002420 -0.0001066 0.0000888 -0.0000491 0.0007294 -0.0001893 0.0006042 -0.0002384 0.0005151 -0.0000341 0.0002646 -0.0001122 0.0003159
-0.0000182 -0.0000575 0.0000624 -0.0000597 -0.0000583 0.0001614 -0.0000102 0.0000465 -0.0000622 0.0003837 0.0007893 -0.0007660 0.0008569 -0.0012776 -0.0000753 0.0003468 -0.0000175 0.0003809 -0.0001426 0.0005723 -0.0001722 0.0005524 -0.0000588 -0.0002146 -0.0001104 0.0004870 -0.0000197 0.0002180 -0.0001884 0.0004998 -0.0000920 0.0002233 -0.0001063 0.0000601 -0.0000488 0.0007119 -0.0001887 0.0005796 -0.0002367 0.0004977 -0.0000325 0.0002587 -0.0001150 0.0002975
-0.0000183 -0.0000542 0.0000641 -0.0000668 -0.0000630 0.0001578 -0.0000080 0.0000518 -0.0000616 0.0003771 0.0007381 -0.0007265 0.0008959 -0.0013374 -0.0000762 0.0003390 -0.0000186 0.0003733 -0.0001429 0.0005656 -0.0001717 0.0005401 -0.0000582 -0.0002089 -0.0001112 0.0004789 -0.0000169 0.0002269 -0.0001892 0.0004922 -0.0000931 0.0002119 -0.0001067 0.0000416 -0.0000477 0.0007044 -0.0001889 0.0005698 -0.0002353 0.0004908 -0.0000323 0.0002628 -0.0001178 0.0002874
-0.0000136 -0.0000558 0.0000594 -0.0000528 -0.0000651 0.0001552 -0.0000024 0.0000537 -0.0000625 0.0003722 0.0006793 -0.0006822 0.0009386 -0.0014028 -0.0000837 0.0003396 -0.0000206 0.0003666 -0.0001441 0.0005603 -0.0001716 0.0005349 -0.0000582 -0.0002002 -0.0001126 0.0004728 -0.0000139 0.0002366 -0.0001896 0.0004882 -0.0000932 0.0002019 -0.0001069 0.0000254 -0.0000468 0.0006974 -0.0001892 0.0005616 -0.0002330 0.0004863 -0.0000326 0.0002690 -0.0001209 0.0002779
-0.0000112 -0.0000566 0.0000583 -0.0000540 -0.0000675 0.0001506 -0.0000056 0.0000560 -0.0000654 0.0003698 0.0006258 -0.0006416 0.0009829 -0.0014706 -0.0000764 0.0003236 -0.0000222 0.0003586 -0.0001451 0.0005539 -0.0001713 0.0005305 -0.0000553 -0.0001964 -0.0001142 0.0004676 -0.0000115 0.0002461 -0.0001906 0.0004853 -0.0000937 0.0001944 -0.0001065 0.0000110 -0.0000476 0.0006905 -0.0001898 0.0005583 -0.0002316 0.0004825 -0.0000329 0.0002783 -0.0001239 0.0002716
-0.0000124 -0.0000548 0.0000634 -0.0000458 -0.0000730 0.0001538 -0.0000191 0.0000701 -0.0000671 0.0003664 0.0005738 -0.0006028 0.0010250 -0.0015353 -0.0000788 0.0003186 -0.0000245 0.0003506 -0.0001467 0.0005484 -0.0001721 0.0005272 -0.0000546 -0.0001888 -0.0001161 0.0004629 -0.0000089 0.0002557 -0.0001913 0.0004824 -0.0000942 0.0001857 -0.0001061 -0.0000034 -0.0000489 0.0006821 -0.0001906 0.0005538 -0.0002302 0.0004784 -0.0000326 0.0002863 -0.0001270 0.0002647
-0.0000119 -0.0000537 0.0000559 -0.0000401 -0.0000737 0.0001481 -0.0000125 0.0000650 -0.0000683 0.0003624 0.0005258 -0.0005667 0.0010643 -0.0015959 -0.0000706 0.0002998 -0.0000269 0.0003420 -0.0001473 0.0005416 -0.0001719 0.0005207 -0.0000515 -0.0001836 -0.0001174 0.0004569 -0.0000062 0.0002656 -0.0001924 0.0004787 -0.0000946 0.0001757 -0.0001055 -0.0000189 -0.0000504 0.0006733 -0.0001912 0.0005477 -0.0002300 0.0004752 -0.0000329 0.0002944 -0.0001296 0.0002571
-0.0000140 -0.0000521 0.0000261 -0.0000164 -0.0000834 0.0001560 -0.0000070 0.0000613 -0.0000696 0.0003599 0.0004841 -0.0005354 0.0010934 -0.0016403 -0.0000642 0.0002864 -0.0000288 0.0003335 -0.0001483 0.0005360 -0.0001714 0.0005125 -0.0000508 -0.0001785 -0.0001190 0.0004506 -0.0000034 0.0002739 -0.0001914 0.0004714 -0.0000941 0.0001621 -0.0001049 -0.0000413 -0.0000498 0.0006593 -0.0001917 0.0005251 -0.0002289 0.0004616 -0.0000321 0.0002858 -0.0001310 0.0002346
-0.0000147 -0.0000499 0.0000271 -0.0000277 -0.0000769 0.0001395 -0.0000072 0.0000620 -0.0000700 0.0003509 0.0004533 -0.0005101 0.0011155 -0.0016743 -0.0000648 0.0002771 -0.0000295 0.0003228 -0.0001491 0.0005276 -0.0001710 0.0004959 -0.0000504 -0.0001757 -0.0001208 0.0004426 -0.0000012 0.0002803 -0.0001924 0.0004631 -0.0000946 0.0001482 -0.0001042 -0.0000613 -0.0000491 0.0006506 -0.0001922 0.0005139 -0.0002266 0.0004535 -0.0000324 0.0002912 -0.0001332 0.0002238
-0.0000188 -0.0000524 0.0000102 0.0000001 -0.0000834 0.0001349 -0.0000111 0.0000557 -0.0000708 0.0003413 0.0004551 -0.0005080 0.0011138 -0.0016715 -0.0000610 0.0002634 -0.0000302 0.0003134 -0.0001494 0.0005208 -0.0001698 0.0004856 -0.0000490 -0.0001749 -0.0001225 0.0004363 0.0000013 0.0002865 -0.0001921 0.0004568 -0.0000938 0.0001367 -0.0001036 -0.0000763 -0.0000494 0.0006444 -0.0001932 0.0005073 -0.0002240 0.0004497 -0.0000328 0.0002984 -0.0001355 0.0002166
-0.0000213 -0.0000539 0.0000172 0.0000085 -0.0000829 0.0001257 -0.0000031 0.0000433 -0.0000729 0.0003345 0.0004430 -0.0004972 0.0011129 -0.0016702 -0.0000632 0.0002532 -0.0000314 0.0003043 -0.0001507 0.0005142 -0.0001698 0.0004770 -0.0000472 -0.0001752 -0.0001241 0.0004307 0.0000029 0.0002907 -0.0001927 0.0004523 -0.0000931 0.0001267 -0.0001026 -0.0000904 -0.0000513 0.0006383 -0.0001937 0.0005010 -0.0002222 0.0004468 -0.0000328 0.0003090 -0.0001371 0.0002144
-0.0000227 -0.0000567 0.0000300 -0.0000071 -0.0000854 0.0001219 -0.0000079 0.0000473 -0.0000725 0.0003270 0.0004421 -0.0004955 0.0010897 -0.0016353 -0.0000567 0.0002389 -0.0000327 0.0002963 -0.0001514 0.0005077 -0.0001697 0.0004712 -0.0000480 -0.0001765 -0.0001264 0.0004268 0.0000034 0.0002908 -0.0001926 0.0004485 -0.0000925 0.0001183 -0.0001014 -0.0001016 -0.0000529 0.0006311 -0.0001947 0.0004947 -0.0002207 0.0004444 -0.0000333 0.0003204 -0.0001374 0.0002157
-0.0000241 -0.0000602 -0.0000034 0.0000113 -0.0000830 0.0001147 -0.0000030 0.0000440 -0.0000748 0.0003233 0.0004634 -0.0005064 0.0010546 -0.0015820 -0.0000541 0.0002297 -0.0000333 0.0002886 -0.0001530 0.0005023 -0.0001689 0.0004628 -0.0000476 -0.0001809 -0.0001286 0.0004225 0.0000025 0.0002886 -0.0001930 0.0004449 -0.0000913 0.0001082 -0.0001003 -0.0001125 -0.0000543 0.0006237 -0.0001951 0.0004855 -0.0002192 0.0004410 -0.0000342 0.0003309 -0.0001370 0.0002196
-0.0000278 -0.0000615 0.0000021 -0.0000092 -0.0000754 0.0001026 -0.0000091 0.0000459 -0.0000763 0.0003181 0.0005026 -0.0005423 0.0010208 -0.0015309 -0.0000560 0.0002232 -0.0000341 0.0002813 -0.0001544 0.0004971 -0.0001686 0.0004541 -0.0000474 -0.0001861 -0.0001307 0.0004179 0.0000019 0.0002838 -0.0001934 0.0004408 -0.0000903 0.0000987 -0.0000992 -0.0001223 -0.0000554 0.0006168 -0.0001958 0.0004762 -0.0002185 0.0004387 -0.0000341 0.0003409 -0.0001356 0.0002240
-0.0000262 -0.0000678 0.0000027 -0.0000281 -0.0000795 0.0000984 -0.0000098 0.0000415 -0.0000783 0.0003131 0.0005622 -0.0006119 0.0009880 -0.0014814 -0.0000550 0.0002103 -0.0000341 0.0002733 -0.0001560 0.0004908 -0.0001667 0.0004341 -0.0000473 -0.0001958 -0.0001324 0.0004103 0.0000013 0.0002760 -0.0001933 0.0004314 -0.0000886 0.0000858 -0.0000977 -0.0001367 -0.0000561 0.0006069 -0.0001959 0.0004603 -0.0002180 0.0004328 -0.0000352 0.0003487 -0.0001333 0.0002274
-0.0000298 -0.0000690 -0.0000048 -0.0000095 -0.0000841 0.0000905 0.0000005 0.0000291 -0.0000792 0.0003077 0.0006101 -0.0006585 0.0009514 -0.0014261 -0.0000530 0.0002013 -0.0000341 0.0002682 -0.0001564 0.0004844 -0.0001661 0.0004243 -0.0000489 -0.0002021 -0.0001350 0.0004057 -0.0000001 0.0002684 -0.0001934 0.0004264 -0.0000875 0.0000770 -0.0000965 -0.0001465 -0.0000571 0.0006006 -0.0001964 0.0004489 -0.0002170 0.0004294 -0.0000334 0.0003539 -0.0001308 0.0002332
-0.0000308 -0.0000710 -0.0000134 -0.0000063 -0.0000837 0.0000899 -0.0000082 0.0000338 -0.0000793 0.0003034 0.0006048 -0.0006548 0.0009430 -0.0014134 -0.0000540 0.0002010 -0.0000344 0.0002636 -0.0001577 0.0004790 -0.0001661 0.0004190 -0.0000496 -0.0002015 -0.0001371 0.0004024 -0.0000017 0.0002600 -0.0001942 0.0004243 -0.0000859 0.0000706 -0.0000946 -0.0001566 -0.0000587 0.0005942 -0.0001967 0.0004384 -0.0002163 0.0004266 -0.0000339 0.0003591 -0.0001284 0.0002403
-0.0000317 -0.0000714 -0.0000156 0.0000015 -0.0000802 0.0000859 -0.0000144 0.0000434 -0.0000798 0.0002992 0.0006196 -0.0006649 0.0009152 -0.0013712 -0.0000541 0.0001967 -0.0000344 0.0002589 -0.0001601 0.0004739 -0.0001659 0.0004126 -0.0000491 -0.0002104 -0.0001395 0.0003980 -0.0000034 0.0002505 -0.0001941 0.0004209 -0.0000840 0.0000643 -0.0000931 -0.0001639 -0.0000613 0.0005879 -0.0001970 0.0004284 -0.0002150 0.0004229 -0.0000325 0.0003632 -0.0001257 0.0002481
-0.0000328 -0.0000736 0.0000058 -0.0000162 -0.0000760 0.0000750 -0.0000136 0.0000402 -0.0000811 0.0002933 0.0006464 -0.0006830 0.0008823 -0.0013215 -0.0000561 0.0001897 -0.0000348 0.0002547 -0.0001622 0.0004686 -0.0001661 0.0004075 -0.0000493 -0.0002207 -0.0001423 0.0003941 -0.0000055 0.0002406 -0.0001960 0.0004187 -0.0000825 0.0000590 -0.0000918 -0.0001712 -0.0000643 0.0005805 -0.0001973 0.0004178 -0.0002144 0.0004188 -0.0000321 0.0003668 -0.0001229 0.0002551
-0.0000349 -0.0000743 -0.0000325 0.0000146 -0.0000770 0.0000729 -0.0000082 0.0000304 -0.0000841 0.0002890 0.0006754 -0.0007016 0.0008518 -0.0012754 -0.0000545 0.0001846 -0.0000351 0.0002505 -0.0001637 0.0004627 -0.0001659 0.0004004 -0.0000490 -0.0002321 -0.0001447 0.0003890 -0.0000075 0.0002308 -0.0001971 0.0004157 -0.0000808 0.0000536 -0.0000900 -0.0001797 -0.0000670 0.0005727 -0.0001982 0.0004068 -0.0002137 0.0004148 -0.0000316 0.0003699 -0.0001205 0.0002601
-0.0000354 -0.0000769 -0.0000622 0.0000519 -0.0000772 0.0000736 -0.0000136 0.0000281 -0.0000857 0.0002840 0.0007045 -0.0007238 0.0008190 -0.0012260 -0.0000525 0.0001800 -0.0000348 0.0002456 -0.0001647 0.0004560 -0.0001652 0.0003926 -0.0000519 -0.0002383 -0.0001473 0.0003831 -0.0000095 0.0002217 -0.0001967 0.0004096 -0.0000791 0.0000461 -0.0000887 -0.0001924 -0.0000681 0.0005617 -0.0001989 0.0003827 -0.0002129 0.0004036 -0.0000317 0.0003604 -0.0001172 0.0002544
-0.0000363 -0.0000793 -0.0000355 0.0000099 -0.0000688 0.0000557 -0.0000206 0.0000338 -0.0000899 0.0002783 0.0007339 -0.0007446 0.0007880 -0.0011792 -0.0000533 0.0001741 -0.0000344 0.0002412 -0.0001664 0.0004491 -0.0001648 0.0003803 -0.0000544 -0.0002439 -0.0001500 0.0003767 -0.0000113 0.0002121 -0.0001963 0.0004022 -0.0000780 0.0000388 -0.0000874 -0.0002026 -0.0000697 0.0005552 -0.0001992 0.0003690 -0.0002130 0.0003989 -0.0000309 0.0003603 -0.0001145 0.0002578
-0.0000379 -0.0000809 -0.0000476 0.0000302 -0.0000643 0.0000463 -0.0000239 0.0000328 -0.0000905 0.0002713 0.0007590 -0.0007617 0.0007661 -0.0011463 -0.0000543 0.0001706 -0.0000344 0.0002383 -0.0001686 0.0004432 -0.0001647 0.0003746 -0.0000542 -0.0002512 -0.0001523 0.0003713 -0.0000130 0.0002034 -0.0001962 0.0003981 -0.0000762 0.0000355 -0.0000858 -0.0002087 -0.0000716 0.0005503 -0.0001996 0.0003602 -0.0002116 0.0003969 -0.0000291 0.0003614 -0.0001116 0.0002623
-0.0000427 -0.0000788 -0.0000364 0.0000244 -0.0000650 0.0000422 -0.0000427 0.0000427 -0.0000934 0.0002675 0.0007792 -0.0007753 0.0007405 -0.0011077 -0.0000439 0.0001539 -0.0000342 0.0002342 -0.0001698 0.0004363 -0.0001653 0.0003702 -0.0000541 -0.0002595 -0.0001551 0.0003662 -0.0000149 0.0001951 -0.0001964 0.0003949 -0.0000758 0.0000336 -0.0000843 -0.0002152 -0.0000745 0.0005436 -0.0002002 0.0003510 -0.0002108 0.0003935 -0.0000285 0.0003630 -0.0001088 0.0002676
-0.0000441 -0.0000800 -0.0000598 0.0000217 -0.0000598 0.0000355 -0.0000368 0.0000330 -0.0000949 0.0002618 0.0007985 -0.0007891 0.0007091 -0.0010604 -0.0000548 0.0001629 -0.0000348 0.0002310 -0.0001718 0.0004302 -0.0001662 0.0003674 -0.0000554 -0.0002655 -0.0001580 0.0003608 -0.0000165 0.0001870 -0.0001970 0.0003919 -0.0000750 0.0000314 -0.0000836 -0.0002199 -0.0000782 0.0005362 -0.0002009 0.0003415 -0.0002108 0.0003909 -0.0000288 0.0003645 -0.0001064 0.0002721
-0.0000420 -0.0000823 -0.0000691 0.0000323 -0.0000551 0.0000287 -0.0000251 0.0000233 -0.0000980 0.0002585 0.0008080 -0.0007954 0.0006995 -0.0010461 -0.0000561 0.0001594 -0.0000361 0.0002282 -0.0001741 0.0004235 -0.0001671 0.0003637 -0.0000560 -0.0002705 -0.0001604 0.0003548 -0.0000185 0.0001801 -0.0001979 0.0003900 -0.0000750 0.0000294 -0.0000827 -0.0002257 -0.0000821 0.0005281 -0.0002013 0.0003302 -0.0002105 0.0003862 -0.0000281 0.0003636 -0.0001037 0.0002757
-0.0000414 -0.0000830 -0.0000696 0.0000521 -0.0000548 0.0000313 -0.0000466 0.0000438 -0.0001002 0.0002555 0.0008086 -0.0007937 0.0006952 -0.0010397 -0.0000577 0.0001570 -0.0000368 0.0002250 -0.0001770 0.0004175 -0.0001677 0.0003590 -0.0000546 -0.0002787 -0.0001631 0.0003487 -0.0000203 0.0001731 -0.0001979 0.0003873 -0.0000751 0.0000276 -0.0000818 -0.0002315 -0.0000859 0.0005204 -0.0002022 0.0003188 -0.0002103 0.0003807 -0.0000280 0.0003601 -0.0001012 0.0002755
-0.0000412 -0.0000844 -0.0000442 0.0000339 -0.0000526 0.0000247 -0.0000364 0.0000386 -0.0001012 0.0002494 0.0008141 -0.0007954 0.0006927 -0.0010362 -0.0000628 0.0001528 -0.0000365 0.0002172 -0.0001794 0.0004065 -0.0001671 0.0003319 -0.0000551 -0.0002866 -0.0001657 0.0003377 -0.0000220 0.0001646 -0.0001975 0.0003725 -0.0000743 0.0000157 -0.0000810 -0.0002481 -0.0000884 0.0005066 -0.0002022 0.0002939 -0.0002101 0.0003684 -0.0000261 0.0003507 -0.0000993 0.0002710
-0.0000380 -0.0000853 -0.0000350 0.0000403 -0.0000537 0.0000176 -0.0000442 0.0000470 -0.0001024 0.0002411 0.0008167 -0.0007959 0.0006835 -0.0010224 -0.0000640 0.0001452 -0.0000359 0.0002131 -0.0001806 0.0003963 -0.0001665 0.0003200 -0.0000542 -0.0002919 -0.0001676 0.0003271 -0.0000229 0.0001576 -0.0001970 0.0003637 -0.0000727 0.0000093 -0.0000802 -0.0002589 -0.0000898 0.0004990 -0.0002028 0.0002784 -0.0002091 0.0003616 -0.0000278 0.0003466 -0.0000971 0.0002695
-0.0000367 -0.0000799 -0.0000239 0.0000119 -0.0000501 0.0000151 -0.0000372 0.0000532 -0.0001025 0.0002376 0.0007748 -0.0007642 0.0007062 -0.0010571 -0.0000643 0.0001419 -0.0000363 0.0002101 -0.0001833 0.0003861 -0.0001676 0.0003153 -0.0000541 -0.0002936 -0.0001701 0.0003176 -0.0000244 0.0001517 -0.0001963 0.0003575 -0.0000716 0.0000058 -0.0000797 -0.0002682 -0.0000921 0.0004906 -0.0002032 0.0002634 -0.0002085 0.0003564 -0.0000285 0.0003407 -0.0000951 0.0002679
-0.0000370 -0.0000762 -0.0000171 -0.0000044 -0.0000521 0.0000145 -0.0000387 0.0000591 -0.0001029 0.0002328 0.0007543 -0.0007475 0.0007115 -0.0010651 -0.0000609 0.0001364 -0.0000364 0.0002061 -0.0001862 0.0003763 -0.0001681 0.0003107 -0.0000540 -0.0002957 -0.0001730 0.0003084 -0.0000258 0.0001470 -0.0001956 0.0003514 -0.0000714 0.0000036 -0.0000795 -0.0002740 -0.0000951 0.0004813 -0.0002038 0.0002514 -0.0002078 0.0003511 -0.0000315 0.0003366 -0.0000930 0.0002677
-0.0000357 -0.0000743 -0.0000307 0.0000075 -0.0000524 0.0000134 -0.0000347 0.0000562 -0.0001033 0.0002263 0.0007366 -0.0007333 0.0007295 -0.0010924 -0.0000720 0.0001438 -0.0000372 0.0002014 -0.0001899 0.0003663 -0.0001699 0.0003065 -0.0000562 -0.0002962 -0.0001751 0.0002978 -0.0000269 0.0001431 -0.0001962 0.0003460 -0.0000717 0.0000013 -0.0000798 -0.0002800 -0.0000984 0.0004710 -0.0002044 0.0002381 -0.0002076 0.0003444 -0.0000322 0.0003282 -0.0000912 0.0002656
-0.0000360 -0.0000728 -0.0000345 0.0000181 -0.0000501 0.0000072 -0.0000441 0.0000631 -0.0001039 0.0002194 0.0007265 -0.0007254 0.0007364 -0.0011030 -0.0000707 0.0001364 -0.0000378 0.0001971 -0.0001924 0.0003553 -0.0001710 0.0003001 -0.0000574 -0.0003022 -0.0001775 0.0002866 -0.0000274 0.0001380 -0.0001964 0.0003389 -0.0000721 0.0000001 -0.0000797 -0.0002871 -0.0001017 0.0004599 -0.0002053 0.0002242 -0.0002075 0.0003373 -0.0000319 0.0003187 -0.0000891 0.0002621
-0.0000326 -0.0000732 -0.0000346 0.0000359 -0.0000569 0.0000132 -0.0000470 0.0000648 -0.0001040 0.0002121 0.0007152 -0.0007170 0.0007327 -0.0010973 -0.0000699 0.0001294 -0.0000389 0.0001936 -0.0001956 0.0003448 -0.0001726 0.0002940 -0.0000581 -0.0003060 -0.0001800 0.0002752 -0.0000281 0.0001336 -0.0001957 0.0003298 -0.0000725 -0.0000042 -0.0000797 -0.0002991 -0.0001030 0.0004449 -0.0002062 0.0001955 -0.0002066 0.0003217 -0.0000304 0.0002920 -0.0000868 0.0002433
-0.0000341 -0.0000696 -0.0000347 0.0000289 -0.0000551 -0.0000011 -0.0000614 0.0000799 -0.0001039 0.0002017 0.0007080 -0.0007095 0.0007297 -0.0010929 -0.0000701 0.0001197 -0.0000384 0.0001870 -0.0001983 0.0003299 -0.0001734 0.0002713 -0.0000584 -0.0003120 -0.0001824 0.0002602 -0.0000290 0.0001278 -0.0001954 0.0003148 -0.0000723 -0.0000134 -0.0000794 -0.0003131 -0.0001030 0.0004328 -0.0002065 0.0001726 -0.0002044 0.0003083 -0.0000283 0.0002754 -0.0000851 0.0002337
