-0.0000000 -0.0000000 -0.0000000 -0.0000000 -0.0000000 -0.0000000 -0.0000000 -0.0000000 -0.0000000 -0.0000000 -0.0000000 -0.0000000 -0.0000000 -0.0000000 -0.0000000 -0.0000000 -0.0000000 -0.0000000 -0.0000000 -0.0000000 -0.0000000 -0.0000000 -0.0000000 -0.0000000 -0.0000000 -0.0000000 -0.0000000 -0.0000000 -0.0000000 -0.0000000 -0.0000000 -0.0000000 -0.0000000 -0.0000000 -0.0000000 -0.0000000 -0.0000000 -0.0000000 -0.0000000 -0.0000000 -0.0000000 -0.0000000 -0.0000000 -0.0000000
-0.0000000 -0.0000000 -0.0000000 -0.0000000 -0.0000000 -0.0000000 -0.0000000 -0.0000000 -0.0000000 -0.0000000 -0.0000000 -0.0000000 -0.0000000 -0.0000000 -0.0000000 -0.0000000 -0.0000000 -0.0000000 -0.0000000 -0.0000000 -0.0000000 -0.0000000 -0.0000000 -0.0000000 -0.0000000 -0.0000000 -0.0000000 -0.0000000 -0.0000000 -0.0000000 -0.0000000 -0.0000000 -0.0000000 -0.0000000 -0.0000000 -0.0000000 -0.0000000 -0.0000000 -0.0000000 -0.0000000 -0.0000000 -0.0000000 -0.0000000 -0.0000000
-0.0000000 -0.0000000 -0.0000000 -0.0000000 -0.0000000 -0.0000000 -0.0000000 -0.0000000 -0.0000000 -0.0000000 -0.0000000 -0.0000000 -0.0000000 -0.0000000 -0.0000000 -0.0000000 -0.0000000 -0.0000000 -0.0000000 -0.0000000 -0.0000000 -0.0000000 -0.0000000 -0.0000000 -0.0000000 -0.0000000 -0.0000000 -0.0000000 -0.0000000 -0.0000000 -0.0000000 -0.0000000 -0.0000000 -0.0000000 -0.0000000 -0.0000000 -0.0000000 -0.0000000 -0.0000000 -0.0000000 -0.0000000 -0.0000000 -0.0000000 -0.0000000
-0.0000000 -0.0000000 -0.0000000 -0.0000000 -0.0000000 -0.0000000 -0.0000000 -0.0000000 -0.0000000 -0.0000000 -0.0000000 -0.0000000 -0.0000000 -0.0000000 -0.0000000 -0.0000000 -0.0000000 -0.0000000 -0.0000000 -0.0000000 -0.0000000 -0.0000000 -0.0000000 -0.0000000 -0.0000000 -0.0000000 -0.0000000 -0.0000000 -0.0000000 -0.0000000 -0.0000000 -0.0000000 -0.0000000 -0.0000000 -0.0000000 -0.0000000 -0.0000000 -0.0000000 -0.0000000 -0.0000000 -0.0000000 -0.0000000 -0.0000000 -0.0000000
-0.0000000 -0.0000000 -0.0000000 -0.0000000 -0.0000000 -0.0000000 -0.0000000 -0.0000000 -0.0000000 -0.0000000 -0.0000000 -0.0000000 -0.0000000 -0.0000000 -0.0000000 -0.0000000 -0.0000000 -0.0000000 -0.0000000 -0.0000000 -0.0000000 -0.0000000 -0.0000000 -0.0000000 -0.0000000 -0.0000000 -0.0000000 -0.0000000 -0.0000000 -0.0000000 -0.0000000 -0.0000000 -0.0000000 -0.0000000 -0.0000000 -0.0000000 -0.0000000 -0.0000000 -0.0000000 -0.0000000 -0.0000000 -0.0000000 -0.0000000 -0.0000000
-0.0000000 -0.0000000 -0.0000000 -0.0000000 -0.0000000 -0.0000000 -0.0000000 -0.0000000 -0.0000000 -0.0000000 -0.0000000 -0.0000000 -0.0000000 -0.0000000 -0.0000000 -0.0000000 -0.0000000 -0.0000000 -0.0000000 -0.0000000 -0.0000000 -0.0000000 -0.0000000 -0.0000000 -0.0000000 -0.0000000 -0.0000000 -0.0000000 -0.0000000 -0.0000000 -0.0000000 -0.0000000 -0.0000000 -0.0000000 -0.0000000 -0.0000000 -0.0000000 -0.0000000 -0.0000000 -0.0000000 -0.0000000 -0.0000000 -0.0000000 -0.0000000
-0.0000000 -0.0000000 -0.0000000 -0.0000000 -0.0000000 -0.0000000 -0.0000000 -0.0000000 -0.0000000 -0.0000000 -0.0000000 -0.0000000 -0.0000000 -0.0000000 -0.0000000 -0.0000000 -0.0000000 -0.0000000 -0.0000000 -0.0000000 -0.0000000 -0.0000000 -0.0000000 -0.0000000 -0.0000000 -0.0000000 -0.0000000 -0.0000000 -0.0000000 -0.0000000 -0.0000000 -0.0000000 -0.0000000 -0.0000000 -0.0000000 -0.0000000 -0.0000000 -0.0000000 -0.0000000 -0.0000000 -0.0000000 -0.0000000 -0.0000000 -0.0000000
-0.0000000 -0.0000000 -0.0000000 -0.0000000 -0.0000000 -0.0000000 -0.0000000 -0.0000000 -0.0000000 -0.0000000 -0.0000000 -0.0000000 -0.0000000 -0.0000000 -0.0000000 -0.0000000 -0.0000000 -0.0000000 -0.0000000 -0.0000000 -0.0000000 -0.0000000 -0.0000000 -0.0000000 -0.0000000 -0.0000000 -0.0000000 -0.0000000 -0.0000000 -0.0000000 -0.0000000 -0.0000000 -0.0000000 -0.0000000 -0.0000000 -0.0000000 -0.0000000 -0.0000000 -0.0000000 -0.0000000 -0.0000000 -0.0000000 -0.0000000 -0.0000000
-0.0000000 -0.0000000 -0.0000000 -0.0000000 -0.0000000 -0.0000000 -0.0000000 -0.0000000 -0.0000000 -0.0000000 -0.0000000 -0.0000000 -0.0000000 -0.0000000 -0.0000000 -0.0000000 -0.0000000 -0.0000000 -0.0000000 -0.0000000 -0.0000000 -0.0000000 -0.0000000 -0.0000000 -0.0000000 -0.0000000 -0.0000000 -0.0000000 -0.0000000 -0.0000000 -0.0000000 -0.0000000 -0.0000000 -0.0000000 -0.0000000 -0.0000000 -0.0000000 -0.0000000 -0.0000000 -0.0000000 -0.0000000 -0.0000000 -0.0000000 -0.0000000
-0.0000000 -0.0000000 -0.0000000 -0.0000000 -0.0000000 -0.0000000 -0.0000000 -0.0000000 -0.0000000 -0.0000000 -0.0000000 -0.0000000 -0.0000000 -0.0000000 -0.0000000 -0.0000000 -0.0000000 -0.0000000 -0.0000000 -0.0000000 -0.0000000 -0.0000000 -0.0000000 -0.0000000 -0.0000000 -0.0000000 -0.0000000 -0.0000000 -0.0000000 -0.0000000 -0.0000000 -0.0000000 -0.0000000 -0.0000000 -0.0000000 -0.0000000 -0.0000000 -0.0000000 -0.0000000 -0.0000000 -0.0000000 -0.0000000 -0.0000000 -0.0000000
-0.0000000 -0.0000000 -0.0000000 -0.0000000 -0.0000000 -0.0000000 -0.0000000 -0.0000000 -0.0000000 -0.0000000 -0.0000000 -0.0000000 -0.0000000 -0.0000000 -0.0000000 -0.0000000 -0.0000000 -0.0000000 -0.0000000 -0.0000000 -0.0000000 -0.0000000 -0.0000000 -0.0000000 -0.0000000 -0.0000000 -0.0000000 -0.0000000 -0.0000000 -0.0000000 -0.0000000 -0.0000000 -0.0000000 -0.0000000 -0.0000000 -0.0000000 -0.0000000 -0.0000000 -0.0000000 -0.0000000 -0.0000000 -0.0000000 -0.0000000 -0.0000000
-0.0000000 -0.0000000 -0.0000000 -0.0000000 -0.0000000 -0.0000000 -0.0000000 -0.0000000 -0.0000000 -0.0000000 -0.0000000 -0.0000000 -0.0000000 -0.0000000 -0.0000000 -0.0000000 -0.0000000 -0.0000000 -0.0000000 -0.0000000 -0.0000000 -0.0000000 -0.0000000 -0.0000000 -0.0000000 -0.0000000 -0.0000000 -0.0000000 -0.0000000 -0.0000000 -0.0000000 -0.0000000 -0.0000000 -0.0000000 -0.0000000 -0.0000000 -0.0000000 -0.0000000 -0.0000000 -0.0000000 -0.0000000 -0.0000000 -0.0000000 -0.0000000
-0.0000000 -0.0000000 -0.0000000 -0.0000000 -0.0000000 -0.0000000 -0.0000000 -0.0000000 -0.0000000 -0.0000000 -0.0000000 -0.0000000 -0.0000000 -0.0000000 -0.0000000 -0.0000000 -0.0000000 -0.0000000 -0.0000000 -0.0000000 -0.0000000 -0.0000000 -0.0000000 -0.0000000 -0.0000000 -0.0000000 -0.0000000 -0.0000000 -0.0000000 -0.0000000 -0.0000000 -0.0000000 -0.0000000 -0.0000000 -0.0000000 -0.0000000 -0.0000000 -0.0000000 -0.0000000 -0.0000000 -0.0000000 -0.0000000 -0.0000000 -0.0000000
-0.0000000 -0.0000000 -0.0000000 -0.0000000 -0.0000000 -0.0000000 -0.0000000 -0.0000000 -0.0000000 -0.0000000 -0.0000000 -0.0000000 -0.0000000 -0.0000000 -0.0000000 -0.0000000 -0.0000000 -0.0000000 -0.0000000 -0.0000000 -0.0000000 -0.0000000 -0.0000000 -0.0000000 -0.0000000 -0.0000000 -0.0000000 -0.0000000 -0.0000000 -0.0000000 -0.0000000 -0.0000000 -0.0000000 -0.0000000 -0.0000000 -0.0000000 -0.0000000 -0.0000000 -0.0000000 -0.0000000 -0.0000000 -0.0000000 -0.0000000 -0.0000000
-0.0000000 -0.0000000 -0.0000000 -0.0000000 -0.0000000 -0.0000000 -0.0000000 -0.0000000 -0.0000000 -0.0000000 -0.0000000 -0.0000000 -0.0000000 -0.0000000 -0.0000000 -0.0000000 -0.0000000 -0.0000000 -0.0000000 -0.0000000 -0.0000000 -0.0000000 -0.0000000 -0.0000000 -0.0000000 -0.0000000 -0.0000000 -0.0000000 -0.0000000 -0.0000000 -0.0000000 -0.0000000 -0.0000000 -0.0000000 -0.0000000 -0.0000000 -0.0000000 -0.0000000 -0.0000000 -0.0000000 -0.0000000 -0.0000000 -0.0000000 -0.0000000
-0.0000000 -0.0000000 -0.0000000 -0.0000000 -0.0000000 -0.0000000 -0.0000000 -0.0000000 -0.0000000 -0.0000000 -0.0000000 -0.0000000 -0.0000000 -0.0000000 -0.0000000 -0.0000000 -0.0000000 -0.0000000 -0.0000000 -0.0000000 -0.0000000 -0.0000000 -0.0000000 -0.0000000 -0.0000000 -0.0000000 -0.0000000 -0.0000000 -0.0000000 -0.0000000 -0.0000000 -0.0000000 -0.0000000 -0.0000000 -0.0000000 -0.0000000 -0.0000000 -0.0000000 -0.0000000 -0.0000000 -0.0000000 -0.0000000 -0.0000000 -0.0000000
-0.0000000 -0.0000000 -0.0000000 -0.0000000 -0.0000000 -0.0000000 -0.0000000 -0.0000000 -0.0000000 -0.0000000 -0.0000000 -0.0000000 -0.0000000 -0.0000000 -0.0000000 -0.0000000 -0.0000000 -0.0000000 -0.0000000 -0.0000000 -0.0000000 -0.0000000 -0.0000000 -0.0000000 -0.0000000 -0.0000000 -0.0000000 -0.0000000 -0.0000000 -0.0000000 -0.0000000 -0.0000000 -0.0000000 -0.0000000 -0.0000000 -0.0000000 -0.0000000 -0.0000000 -0.0000000 -0.0000000 -0.0000000 -0.0000000 -0.0000000 -0.0000000
-0.0000000 -0.0000000 -0.0000000 -0.0000000 -0.0000000 -0.0000000 -0.0000000 -0.0000000 -0.0000000 -0.0000000 -0.0000000 -0.0000000 -0.0000000 -0.0000000 -0.0000000 -0.0000000 -0.0000000 -0.0000000 -0.0000000 -0.0000000 -0.0000000 -0.0000000 -0.0000000 -0.0000000 -0.0000000 -0.0000000 -0.0000000 -0.0000000 -0.0000000 -0.0000000 -0.0000000 -0.0000000 -0.0000000 -0.0000000 -0.0000000 -0.0000000 -0.0000000 -0.0000000 -0.0000000 -0.0000000 -0.0000000 -0.0000000 -0.0000000 -0.0000000
-0.0000000 -0.0000000 -0.0000000 -0.0000000 -0.0000000 -0.0000000 -0.0000000 -0.0000000 -0.0000000 -0.0000000 -0.0000000 -0.0000000 -0.0000000 -0.0000000 -0.0000000 -0.0000000 -0.0000000 -0.0000000 -0.0000000 -0.0000000 -0.0000000 -0.0000000 -0.0000000 -0.0000000 -0.0000000 -0.0000000 -0.0000000 -0.0000000 -0.0000000 -0.0000000 -0.0000000 -0.0000000 -0.0000000 -0.0000000 -0.0000000 -0.0000000 -0.0000000 -0.0000000 -0.0000000 -0.0000000 -0.0000000 -0.0000000 -0.0000000 -0.0000000
-0.0000000 -0.0000000 -0.0000000 -0.0000000 -0.0000000 -0.0000000 -0.0000000 -0.0000000 -0.0000000 -0.0000000 -0.0000000 -0.0000000 -0.0000000 -0.0000000 -0.0000000 -0.0000000 -0.0000000 -0.0000000 -0.0000000 -0.0000000 -0.0000000 -0.0000000 -0.0000000 -0.0000000 -0.0000000 -0.0000000 -0.0000000 -0.0000000 -0.0000000 -0.0000000 -0.0000000 -0.0000000 -0.0000000 -0.0000000 -0.0000000 -0.0000000 -0.0000000 -0.0000000 -0.0000000 -0.0000000 -0.0000000 -0.0000000 -0.0000000 -0.0000000
-0.0000000 -0.0000000 -0.0000000 -0.0000000 -0.0000000 -0.0000000 -0.0000000 -0.0000000 -0.0000000 -0.0000000 -0.0000000 -0.0000000 -0.0000000 -0.0000000 -0.0000000 -0.0000000 -0.0000000 -0.0000000 -0.0000000 -0.0000000 -0.0000000 -0.0000000 -0.0000000 -0.0000000 -0.0000000 -0.0000000 -0.0000000 -0.0000000 -0.0000000 -0.0000000 -0.0000000 -0.0000000 -0.0000000 -0.0000000 -0.0000000 -0.0000000 -0.0000000 -0.0000000 -0.0000000 -0.0000000 -0.0000000 -0.0000000 -0.0000000 -0.0000000
0.0000041 0.0000004 0.0000008 -0.0000043 -0.0000006 -0.0000000 -0.0000028 0.0000042 0.0000010 0.0000036 0.0000016 -0.0000012 -0.0000029 -0.0000116 -0.0000013 0.0000026 0.0000014 -0.0000052 0.0000006 -0.0000017 0.0000009 -0.0000234 0.0000000 -0.0000007 -0.0000001 -0.0000032 0.0000007 -0.0000031 0.0000023 -0.0000132 0.0000035 -0.0000098 0.0000023 -0.0000093 0.0000006 -0.0000097 -0.0000004 -0.0000088 0.0000016 -0.0000055 -0.0000002 -0.0000032 -0.0000019 0.0000057
0.0000013 0.0000025 0.0000022 -0.0000018 -0.0000047 0.0000096 0.0000009 0.0000042 0.0000000 0.0000116 0.0000006 -0.0000024 0.0000006 -0.0000133 0.0000018 0.0000025 0.0000014 -0.0000074 0.0000009 -0.0000027 0.0000005 -0.0000227 0.0000002 -0.0000014 0.0000001 -0.0000025 0.0000015 -0.0000043 0.0000066 -0.0000174 0.0000073 -0.0000157 0.0000044 -0.0000145 0.0000010 -0.0000157 -0.0000003 -0.0000143 0.0000034 -0.0000082 0.0000009 -0.0000092 -0.0000032 0.0000100
-0.0000042 0.0000062 0.0000038 -0.0000035 0.0000024 0.0000032 -0.0000048 0.0000115 0.0000001 0.0000157 -0.0000007 -0.0000024 -0.0000003 -0.0000167 0.0000033 0.0000024 0.0000018 -0.0000128 0.0000003 -0.0000061 0.0000004 -0.0000277 -0.0000003 -0.0000031 -0.0000003 -0.0000048 0.0000020 -0.0000065 0.0000087 -0.0000244 0.0000110 -0.0000259 0.0000067 -0.0000233 0.0000014 -0.0000251 -0.0000003 -0.0000228 0.0000057 -0.0000142 0.0000022 -0.0000163 -0.0000049 0.0000124
-0.0000095 0.0000110 0.0000066 -0.0000073 0.0000038 0.0000009 -0.0000064 0.0000158 0.0000004 0.0000190 -0.0000015 -0.0000035 0.0000011 -0.0000256 0.0000057 0.0000015 0.0000025 -0.0000208 0.0000005 -0.0000129 0.0000011 -0.0000375 -0.0000010 -0.0000059 -0.0000006 -0.0000113 0.0000019 -0.0000115 0.0000120 -0.0000360 0.0000156 -0.0000421 0.0000087 -0.0000364 0.0000023 -0.0000382 0.0000005 -0.0000365 0.0000068 -0.0000260 0.0000037 -0.0000270 -0.0000060 0.0000098
-0.0000134 0.0000135 0.0000093 -0.0000189 0.0000022 0.0000035 -0.0000063 0.0000175 0.0000010 0.0000158 0.0000005 -0.0000093 0.0000024 -0.0000412 0.0000057 -0.0000030 0.0000037 -0.0000329 0.0000010 -0.0000249 0.0000031 -0.0000584 -0.0000020 -0.0000102 -0.0000002 -0.0000236 0.0000022 -0.0000201 0.0000157 -0.0000550 0.0000197 -0.0000625 0.0000115 -0.0000569 0.0000034 -0.0000569 0.0000002 -0.0000548 0.0000070 -0.0000468 0.0000064 -0.0000407 -0.0000075 0.0000006
-0.0000141 0.0000132 0.0000113 -0.0000348 -0.0000042 0.0000090 -0.0000083 0.0000186 0.0000019 0.0000095 -0.0000000 -0.0000104 0.0000069 -0.0000628 0.0000093 -0.0000114 0.0000049 -0.0000469 0.0000007 -0.0000412 0.0000052 -0.0000891 -0.0000025 -0.0000162 -0.0000000 -0.0000397 0.0000015 -0.0000296 0.0000190 -0.0000767 0.0000244 -0.0000833 0.0000152 -0.0000764 0.0000032 -0.0000744 0.0000010 -0.0000721 0.0000085 -0.0000614 0.0000090 -0.0000478 -0.0000085 -0.0000054
-0.0000093 0.0000071 0.0000136 -0.0000472 -0.0000059 0.0000128 -0.0000097 0.0000239 0.0000011 0.0000037 -0.0000020 -0.0000119 0.0000071 -0.0000700 0.0000101 -0.0000182 0.0000047 -0.0000596 0.0000008 -0.0000594 0.0000065 -0.0001011 -0.0000027 -0.0000233 0.0000001 -0.0000534 0.0000010 -0.0000387 0.0000232 -0.0000930 0.0000280 -0.0000991 0.0000183 -0.0000932 0.0000034 -0.0000907 0.0000010 -0.0000869 0.0000103 -0.0000757 0.0000130 -0.0000574 -0.0000089 -0.0000148
-0.0000075 0.0000031 0.0000154 -0.0000627 -0.0000041 0.0000110 -0.0000052 0.0000245 -0.0000004 -0.0000048 -0.0000016 -0.0000145 0.0000120 -0.0000871 0.0000102 -0.0000249 0.0000051 -0.0000756 -0.0000003 -0.0000810 0.0000088 -0.0001196 -0.0000023 -0.0000312 -0.0000005 -0.0000689 0.0000002 -0.0000488 0.0000276 -0.0001126 0.0000321 -0.0001200 0.0000209 -0.0001132 0.0000035 -0.0001116 0.0000006 -0.0001042 0.0000120 -0.0000925 0.0000160 -0.0000661 -0.0000101 -0.0000259
-0.0000117 0.0000026 0.0000169 -0.0000815 0.0000015 0.0000036 -0.0000088 0.0000278 -0.0000019 -0.0000154 -0.0000017 -0.0000169 0.0000101 -0.0000967 0.0000090 -0.0000302 0.0000055 -0.0000929 -0.0000011 -0.0001062 0.0000113 -0.0001422 -0.0000036 -0.0000395 0.0000003 -0.0000910 -0.0000003 -0.0000605 0.0000319 -0.0001366 0.0000366 -0.0001454 0.0000238 -0.0001363 0.0000021 -0.0001347 0.0000002 -0.0001248 0.0000134 -0.0001153 0.0000204 -0.0000794 -0.0000107 -0.0000430
-0.0000142 -0.0000002 0.0000191 -0.0001055 0.0000017 0.0000035 -0.0000101 0.0000318 -0.0000018 -0.0000319 -0.0000001 -0.0000179 0.0000178 -0.0001200 0.0000089 -0.0000423 0.0000059 -0.0001131 -0.0000027 -0.0001353 0.0000138 -0.0001715 -0.0000045 -0.0000492 0.0000008 -0.0001170 -0.0000003 -0.0000745 0.0000338 -0.0001623 0.0000427 -0.0001779 0.0000282 -0.0001664 0.0000037 -0.0001656 -0.0000004 -0.0001508 0.0000139 -0.0001444 0.0000251 -0.0000956 -0.0000112 -0.0000651
-0.0000053 -0.0000096 0.0000181 -0.0001326 0.0000030 -0.0000058 -0.0000089 0.0000359 -0.0000017 -0.0000521 0.0000008 -0.0000191 0.0000211 -0.0001436 0.0000130 -0.0000590 0.0000069 -0.0001355 -0.0000039 -0.0001694 0.0000161 -0.0002088 -0.0000062 -0.0000593 0.0000013 -0.0001445 -0.0000005 -0.0000888 0.0000380 -0.0001907 0.0000467 -0.0002023 0.0000322 -0.0001902 0.0000041 -0.0001932 0.0000004 -0.0001714 0.0000158 -0.0001605 0.0000294 -0.0001049 -0.0000119 -0.0000800
-0.0000106 -0.0000118 0.0000180 -0.0001529 0.0000079 -0.0000045 -0.0000051 0.0000360 -0.0000027 -0.0000712 -0.0000000 -0.0000198 0.0000216 -0.0001526 0.0000143 -0.0000715 0.0000065 -0.0001551 -0.0000066 -0.0002016 0.0000182 -0.0002262 -0.0000088 -0.0000681 0.0000010 -0.0001664 -0.0000007 -0.0001016 0.0000423 -0.0002115 0.0000524 -0.0002262 0.0000367 -0.0002102 0.0000033 -0.0002162 0.0000001 -0.0001888 0.0000175 -0.0001760 0.0000339 -0.0001149 -0.0000110 -0.0000978
-0.0000118 -0.0000176 0.0000184 -0.0001782 0.0000129 -0.0000091 -0.0000046 0.0000375 -0.0000048 -0.0000906 -0.0000003 -0.0000208 0.0000275 -0.0001731 0.0000149 -0.0000828 0.0000062 -0.0001740 -0.0000094 -0.0002350 0.0000203 -0.0002453 -0.0000111 -0.0000780 0.0000010 -0.0001905 -0.0000007 -0.0001144 0.0000480 -0.0002358 0.0000548 -0.0002475 0.0000402 -0.0002300 0.0000029 -0.0002390 -0.0000005 -0.0002063 0.0000193 -0.0001917 0.0000379 -0.0001266 -0.0000095 -0.0001177
-0.0000127 -0.0000245 0.0000203 -0.0002048 0.0000185 -0.0000166 -0.0000058 0.0000403 -0.0000068 -0.0001102 0.0000010 -0.0000236 0.0000348 -0.0001933 0.0000160 -0.0000946 0.0000062 -0.0001944 -0.0000119 -0.0002692 0.0000220 -0.0002664 -0.0000129 -0.0000886 0.0000010 -0.0002153 -0.0000013 -0.0001279 0.0000515 -0.0002577 0.0000580 -0.0002724 0.0000433 -0.0002511 0.0000013 -0.0002598 -0.0000008 -0.0002262 0.0000210 -0.0002114 0.0000412 -0.0001399 -0.0000081 -0.0001401
-0.0000117 -0.0000342 0.0000217 -0.0002348 0.0000192 -0.0000151 -0.0000078 0.0000412 -0.0000075 -0.0001342 0.0000013 -0.0000258 0.0000350 -0.0002145 0.0000173 -0.0001068 0.0000063 -0.0002158 -0.0000150 -0.0003045 0.0000255 -0.0002956 -0.0000155 -0.0000991 0.0000015 -0.0002435 -0.0000016 -0.0001422 0.0000561 -0.0002849 0.0000636 -0.0003024 0.0000471 -0.0002757 -0.0000008 -0.0002836 -0.0000023 -0.0002492 0.0000217 -0.0002350 0.0000456 -0.0001577 -0.0000062 -0.0001664
-0.0000120 -0.0000388 0.0000229 -0.0002673 0.0000146 -0.0000154 -0.0000119 0.0000424 -0.0000085 -0.0001610 0.0000012 -0.0000256 0.0000392 -0.0002396 0.0000170 -0.0001180 0.0000069 -0.0002379 -0.0000182 -0.0003413 0.0000291 -0.0003312 -0.0000169 -0.0001106 0.0000022 -0.0002730 -0.0000012 -0.0001571 0.0000613 -0.0003142 0.0000681 -0.0003279 0.0000513 -0.0002975 -0.0000032 -0.0003034 -0.0000027 -0.0002676 0.0000236 -0.0002472 0.0000490 -0.0001668 -0.0000041 -0.0001852
-0.0000118 -0.0000461 0.0000233 -0.0002898 0.0000107 -0.0000113 -0.0000093 0.0000397 -0.0000095 -0.0001825 0.0000021 -0.0000293 0.0000375 -0.0002402 0.0000169 -0.0001282 0.0000065 -0.0002555 -0.0000212 -0.0003742 0.0000312 -0.0003422 -0.0000197 -0.0001188 0.0000025 -0.0002928 -0.0000010 -0.0001674 0.0000682 -0.0003341 0.0000735 -0.0003460 0.0000545 -0.0003089 -0.0000036 -0.0003194 -0.0000037 -0.0002783 0.0000258 -0.0002539 0.0000524 -0.0001754 -0.0000021 -0.0002019
-0.0000072 -0.0000562 0.0000228 -0.0003116 0.0000138 -0.0000124 -0.0000095 0.0000366 -0.0000124 -0.0002024 0.0000019 -0.0000307 0.0000387 -0.0002452 0.0000191 -0.0001378 0.0000060 -0.0002707 -0.0000243 -0.0004033 0.0000332 -0.0003532 -0.0000219 -0.0001265 0.0000035 -0.0003115 -0.0000006 -0.0001756 0.0000733 -0.0003490 0.0000786 -0.0003620 0.0000585 -0.0003188 -0.0000035 -0.0003344 -0.0000040 -0.0002871 0.0000280 -0.0002575 0.0000557 -0.0001840 0.0000004 -0.0002189
-0.0000062 -0.0000630 0.0000242 -0.0003328 0.0000151 -0.0000056 -0.0000083 0.0000343 -0.0000140 -0.0002196 0.0000020 -0.0000283 0.0000475 -0.0002538 0.0000173 -0.0001414 0.0000057 -0.0002839 -0.0000280 -0.0004281 0.0000362 -0.0003653 -0.0000226 -0.0001327 0.0000041 -0.0003268 0.0000000 -0.0001831 0.0000765 -0.0003607 0.0000823 -0.0003755 0.0000621 -0.0003281 -0.0000041 -0.0003462 -0.0000047 -0.0002959 0.0000306 -0.0002639 0.0000596 -0.0001927 0.0000033 -0.0002376
-0.0000009 -0.0000719 0.0000269 -0.0003546 0.0000200 -0.0000071 -0.0000041 0.0000270 -0.0000150 -0.0002384 0.0000029 -0.0000274 0.0000470 -0.0002583 0.0000186 -0.0001478 0.0000055 -0.0002965 -0.0000305 -0.0004514 0.0000393 -0.0003814 -0.0000222 -0.0001390 0.0000046 -0.0003408 0.0000005 -0.0001892 0.0000825 -0.0003791 0.0000880 -0.0003931 0.0000654 -0.0003381 -0.0000068 -0.0003562 -0.0000053 -0.0003062 0.0000318 -0.0002717 0.0000629 -0.0002018 0.0000075 -0.0002596
0.0000027 -0.0000808 0.0000281 -0.0003750 0.0000184 -0.0000088 0.0000007 0.0000221 -0.0000165 -0.0002558 0.0000048 -0.0000294 0.0000494 -0.0002707 0.0000202 -0.0001552 0.0000057 -0.0003093 -0.0000323 -0.0004749 0.0000426 -0.0004008 -0.0000217 -0.0001457 0.0000054 -0.0003544 0.0000010 -0.0001965 0.0000877 -0.0003968 0.0000921 -0.0004090 0.0000693 -0.0003506 -0.0000078 -0.0003671 -0.0000059 -0.0003192 0.0000338 -0.0002815 0.0000662 -0.0002100 0.0000120 -0.0002805
-0.0000020 -0.0000791 0.0000291 -0.0003908 0.0000129 -0.0000073 0.0000084 0.0000166 -0.0000172 -0.0002729 0.0000055 -0.0000309 0.0000462 -0.0002606 0.0000231 -0.0001607 0.0000055 -0.0003171 -0.0000353 -0.0004920 0.0000451 -0.0004057 -0.0000223 -0.0001511 0.0000065 -0.0003614 0.0000012 -0.0002002 0.0000926 -0.0004028 0.0000971 -0.0004151 0.0000724 -0.0003508 -0.0000092 -0.0003703 -0.0000067 -0.0003209 0.0000369 -0.0002786 0.0000702 -0.0002124 0.0000156 -0.0002945
-0.0000028 -0.0000822 0.0000310 -0.0004021 0.0000178 -0.0000087 0.0000051 0.0000206 -0.0000181 -0.0002838 0.0000093 -0.0000359 0.0000441 -0.0002497 0.0000226 -0.0001591 0.0000054 -0.0003217 -0.0000387 -0.0005030 0.0000473 -0.0004049 -0.0000228 -0.0001539 0.0000070 -0.0003627 0.0000014 -0.0002015 0.0000968 -0.0004060 0.0000999 -0.0004167 0.0000754 -0.0003476 -0.0000093 -0.0003684 -0.0000071 -0.0003211 0.0000385 -0.0002718 0.0000727 -0.0002124 0.0000192 -0.0003074
-0.0000087 -0.0000789 0.0000321 -0.0004098 0.0000128 -0.0000028 -0.0000001 0.0000233 -0.0000192 -0.0002924 0.0000089 -0.0000321 0.0000480 -0.0002443 0.0000238 -0.0001574 0.0000049 -0.0003236 -0.0000414 -0.0005098 0.0000488 -0.0004024 -0.0000226 -0.0001547 0.0000084 -0.0003621 0.0000022 -0.0002003 0.0001032 -0.0004071 0.0001025 -0.0004137 0.0000786 -0.0003428 -0.0000085 -0.0003663 -0.0000078 -0.0003204 0.0000408 -0.0002650 0.0000753 -0.0002123 0.0000234 -0.0003200
-0.0000057 -0.0000809 0.0000336 -0.0004147 0.0000148 0.0000026 -0.0000063 0.0000287 -0.0000209 -0.0002972 0.0000110 -0.0000284 0.0000439 -0.0002287 0.0000283 -0.0001573 0.0000047 -0.0003240 -0.0000435 -0.0005149 0.0000505 -0.0004024 -0.0000240 -0.0001517 0.0000103 -0.0003604 0.0000034 -0.0001971 0.0001083 -0.0004118 0.0001041 -0.0004102 0.0000818 -0.0003392 -0.0000098 -0.0003642 -0.0000098 -0.0003213 0.0000426 -0.0002632 0.0000771 -0.0002167 0.0000277 -0.0003322
-0.0000042 -0.0000766 0.0000365 -0.0004185 0.0000187 0.0000046 -0.0000188 0.0000367 -0.0000208 -0.0003030 0.0000115 -0.0000268 0.0000457 -0.0002240 0.0000279 -0.0001521 0.0000053 -0.0003223 -0.0000456 -0.0005188 0.0000527 -0.0004056 -0.0000239 -0.0001528 0.0000115 -0.0003586 0.0000039 -0.0001955 0.0001109 -0.0004137 0.0001069 -0.0004102 0.0000851 -0.0003366 -0.0000104 -0.0003634 -0.0000101 -0.0003257 0.0000439 -0.0002614 0.0000761 -0.0002303 0.0000332 -0.0003425
-0.0000114 -0.0000688 0.0000391 -0.0004240 0.0000152 0.0000077 -0.0000183 0.0000351 -0.0000216 -0.0003105 0.0000112 -0.0000264 0.0000458 -0.0002239 0.0000279 -0.0001505 0.0000061 -0.0003230 -0.0000467 -0.0005238 0.0000544 -0.0004175 -0.0000237 -0.0001538 0.0000126 -0.0003565 0.0000048 -0.0001940 0.0001154 -0.0004179 0.0001086 -0.0004052 0.0000879 -0.0003319 -0.0000094 -0.0003596 -0.0000112 -0.0003259 0.0000460 -0.0002543 0.0000755 -0.0002404 0.0000387 -0.0003473
-0.0000118 -0.0000679 0.0000414 -0.0004211 0.0000154 0.0000109 -0.0000176 0.0000301 -0.0000213 -0.0003138 0.0000098 -0.0000235 0.0000447 -0.0002131 0.0000309 -0.0001475 0.0000059 -0.0003186 -0.0000480 -0.0005210 0.0000557 -0.0004113 -0.0000246 -0.0001518 0.0000136 -0.0003471 0.0000054 -0.0001889 0.0001196 -0.0004145 0.0001113 -0.0003950 0.0000899 -0.0003208 -0.0000086 -0.0003511 -0.0000115 -0.0003226 0.0000484 -0.0002439 0.0000743 -0.0002489 0.0000437 -0.0003481
-0.0000146 -0.0000662 0.0000437 -0.0004154 0.0000102 0.0000224 -0.0000167 0.0000223 -0.0000201 -0.0003144 0.0000093 -0.0000216 0.0000473 -0.0002061 0.0000324 -0.0001398 0.0000058 -0.0003109 -0.0000487 -0.0005133 0.0000577 -0.0004071 -0.0000232 -0.0001513 0.0000143 -0.0003347 0.0000059 -0.0001839 0.0001234 -0.0004097 0.0001119 -0.0003828 0.0000930 -0.0003107 -0.0000076 -0.0003421 -0.0000115 -0.0003191 0.0000500 -0.0002315 0.0000739 -0.0002550 0.0000490 -0.0003485
-0.0000143 -0.0000646 0.0000469 -0.0004067 0.0000130 0.0000274 -0.0000111 0.0000126 -0.0000209 -0.0003119 0.0000078 -0.0000176 0.0000490 -0.0001997 0.0000337 -0.0001332 0.0000062 -0.0003031 -0.0000494 -0.0005021 0.0000599 -0.0004024 -0.0000236 -0.0001489 0.0000148 -0.0003208 0.0000056 -0.0001802 0.0001266 -0.0004047 0.0001133 -0.0003732 0.0000955 -0.0003010 -0.0000041 -0.0003344 -0.0000125 -0.0003146 0.0000513 -0.0002236 0.0000736 -0.0002624 0.0000544 -0.0003482
-0.0000142 -0.0000639 0.0000479 -0.0003977 0.0000130 0.0000351 -0.0000130 0.0000067 -0.0000198 -0.0003091 0.0000082 -0.0000188 0.0000451 -0.0001850 0.0000353 -0.0001249 0.0000066 -0.0002957 -0.0000497 -0.0004888 0.0000624 -0.0004039 -0.0000241 -0.0001466 0.0000158 -0.0003092 0.0000051 -0.0001768 0.0001311 -0.0004051 0.0001153 -0.0003647 0.0000975 -0.0002929 -0.0000051 -0.0003221 -0.0000115 -0.0003148 0.0000527 -0.0002193 0.0000725 -0.0002703 0.0000603 -0.0003503
-0.0000112 -0.0000623 0.0000516 -0.0003914 0.0000080 0.0000483 -0.0000097 -0.0000016 -0.0000200 -0.0003037 0.0000074 -0.0000180 0.0000463 -0.0001850 0.0000358 -0.0001178 0.0000075 -0.0002896 -0.0000494 -0.0004773 0.0000670 -0.0004159 -0.0000228 -0.0001472 0.0000179 -0.0003032 0.0000048 -0.0001756 0.0001341 -0.0004115 0.0001178 -0.0003660 0.0001005 -0.0002965 -0.0000008 -0.0003252 -0.0000104 -0.0003240 0.0000533 -0.0002263 0.0000725 -0.0002813 0.0000663 -0.0003562
-0.0000106 -0.0000579 0.0000553 -0.0003867 0.0000079 0.0000444 -0.0000068 -0.0000090 -0.0000194 -0.0002994 0.0000067 -0.0000169 0.0000424 -0.0001764 0.0000369 -0.0001104 0.0000087 -0.0002824 -0.0000482 -0.0004632 0.0000690 -0.0004188 -0.0000215 -0.0001442 0.0000195 -0.0002900 0.0000048 -0.0001699 0.0001375 -0.0004103 0.0001197 -0.0003565 0.0001029 -0.0002909 -0.0000005 -0.0003173 -0.0000091 -0.0003247 0.0000549 -0.0002209 0.0000729 -0.0002870 0.0000725 -0.0003552
-0.0000078 -0.0000574 0.0000592 -0.0003776 0.0000080 0.0000491 0.0000042 -0.0000197 -0.0000181 -0.0002925 0.0000077 -0.0000171 0.0000471 -0.0001723 0.0000390 -0.0001050 0.0000097 -0.0002765 -0.0000472 -0.0004476 0.0000712 -0.0004206 -0.0000215 -0.0001401 0.0000216 -0.0002785 0.0000050 -0.0001642 0.0001421 -0.0004099 0.0001215 -0.0003473 0.0001056 -0.0002859 0.0000014 -0.0003118 -0.0000082 -0.0003266 0.0000565 -0.0002168 0.0000744 -0.0002918 0.0000782 -0.0003540
-0.0000073 -0.0000548 0.0000630 -0.0003689 0.0000080 0.0000565 0.0000059 -0.0000218 -0.0000169 -0.0002839 0.0000078 -0.0000144 0.0000526 -0.0001675 0.0000374 -0.0000938 0.0000102 -0.0002690 -0.0000461 -0.0004301 0.0000734 -0.0004222 -0.0000206 -0.0001346 0.0000235 -0.0002652 0.0000059 -0.0001594 0.0001464 -0.0004071 0.0001236 -0.0003379 0.0001074 -0.0002790 0.0000047 -0.0003110 -0.0000072 -0.0003280 0.0000571 -0.0002131 0.0000766 -0.0002955 0.0000840 -0.0003532
-0.0000008 -0.0000567 0.0000679 -0.0003601 0.0000098 0.0000584 0.0000069 -0.0000208 -0.0000158 -0.0002745 0.0000084 -0.0000146 0.0000575 -0.0001653 0.0000373 -0.0000841 0.0000109 -0.0002625 -0.0000450 -0.0004132 0.0000765 -0.0004282 -0.0000187 -0.0001306 0.0000258 -0.0002540 0.0000063 -0.0001544 0.0001508 -0.0004081 0.0001257 -0.0003310 0.0001090 -0.0002757 0.0000076 -0.0003100 -0.0000054 -0.0003328 0.0000583 -0.0002142 0.0000791 -0.0002987 0.0000902 -0.0003546
0.0000002 -0.0000548 0.0000713 -0.0003520 0.0000118 0.0000588 0.0000216 -0.0000336 -0.0000146 -0.0002656 0.0000090 -0.0000130 0.0000593 -0.0001708 0.0000368 -0.0000756 0.0000118 -0.0002572 -0.0000436 -0.0003972 0.0000795 -0.0004384 -0.0000176 -0.0001271 0.0000278 -0.0002439 0.0000060 -0.0001505 0.0001558 -0.0004111 0.0001276 -0.0003279 0.0001111 -0.0002766 0.0000120 -0.0003154 -0.0000028 -0.0003430 0.0000587 -0.0002226 0.0000822 -0.0003061 0.0000963 -0.0003599
-0.0000010 -0.0000498 0.0000758 -0.0003486 0.0000142 0.0000562 0.0000209 -0.0000358 -0.0000123 -0.0002583 0.0000109 -0.0000130 0.0000634 -0.0001745 0.0000390 -0.0000696 0.0000127 -0.0002527 -0.0000412 -0.0003822 0.0000824 -0.0004515 -0.0000143 -0.0001241 0.0000297 -0.0002343 0.0000070 -0.0001457 0.0001611 -0.0004162 0.0001278 -0.0003220 0.0001139 -0.0002773 0.0000156 -0.0003183 -0.0000005 -0.0003498 0.0000606 -0.0002266 0.0000853 -0.0003074 0.0001027 -0.0003623
-0.0000006 -0.0000500 0.0000792 -0.0003403 0.0000149 0.0000577 0.0000114 -0.0000242 -0.0000106 -0.0002474 0.0000114 -0.0000111 0.0000681 -0.0001757 0.0000399 -0.0000626 0.0000137 -0.0002504 -0.0000397 -0.0003669 0.0000852 -0.0004633 -0.0000129 -0.0001198 0.0000319 -0.0002263 0.0000081 -0.0001420 0.0001653 -0.0004214 0.0001291 -0.0003202 0.0001152 -0.0002798 0.0000191 -0.0003241 0.0000005 -0.0003586 0.0000619 -0.0002340 0.0000896 -0.0003113 0.0001093 -0.0003668
0.0000067 -0.0000543 0.0000843 -0.0003368 0.0000189 0.0000578 0.0000105 -0.0000243 -0.0000082 -0.0002396 0.0000112 -0.0000118 0.0000666 -0.0001770 0.0000400 -0.0000535 0.0000150 -0.0002502 -0.0000366 -0.0003559 0.0000890 -0.0004783 -0.0000131 -0.0001168 0.0000340 -0.0002201 0.0000083 -0.0001402 0.0001705 -0.0004307 0.0001309 -0.0003200 0.0001169 -0.0002835 0.0000219 -0.0003326 0.0000034 -0.0003717 0.0000631 -0.0002432 0.0000932 -0.0003168 0.0001162 -0.0003716
0.0000082 -0.0000535 0.0000883 -0.0003347 0.0000105 0.0000701 0.0000056 -0.0000209 -0.0000071 -0.0002309 0.0000096 -0.0000125 0.0000700 -0.0001818 0.0000407 -0.0000484 0.0000162 -0.0002517 -0.0000342 -0.0003462 0.0000921 -0.0004956 -0.0000129 -0.0001155 0.0000363 -0.0002163 0.0000088 -0.0001398 0.0001758 -0.0004423 0.0001313 -0.0003203 0.0001189 -0.0002920 0.0000260 -0.0003446 0.0000056 -0.0003860 0.0000635 -0.0002548 0.0000983 -0.0003249 0.0001228 -0.0003775
0.0000009 -0.0000475 0.0000931 -0.0003346 0.0000167 0.0000664 0.0000093 -0.0000210 -0.0000062 -0.0002233 0.0000099 -0.0000160 0.0000684 -0.0001883 0.0000444 -0.0000488 0.0000175 -0.0002551 -0.0000326 -0.0003379 0.0000966 -0.0005198 -0.0000120 -0.0001147 0.0000393 -0.0002183 0.0000090 -0.0001403 0.0001805 -0.0004589 0.0001339 -0.0003291 0.0001205 -0.0003030 0.0000295 -0.0003594 0.0000074 -0.0004022 0.0000647 -0.0002722 0.0001028 -0.0003335 0.0001286 -0.0003843
0.0000082 -0.0000498 0.0000970 -0.0003363 0.0000178 0.0000752 0.0000124 -0.0000202 -0.0000033 -0.0002186 0.0000082 -0.0000165 0.0000669 -0.0001783 0.0000427 -0.0000416 0.0000182 -0.0002559 -0.0000302 -0.0003297 0.0000980 -0.0005260 -0.0000107 -0.0001122 0.0000411 -0.0002105 0.0000098 -0.0001367 0.0001864 -0.0004642 0.0001337 -0.0003217 0.0001227 -0.0003018 0.0000345 -0.0003670 0.0000105 -0.0004104 0.0000670 -0.0002745 0.0001066 -0.0003337 0.0001357 -0.0003854
0.0000158 -0.0000543 0.0001005 -0.0003316 0.0000165 0.0000849 0.0000134 -0.0000194 -0.0000018 -0.0002111 0.0000074 -0.0000170 0.0000710 -0.0001860 0.0000431 -0.0000376 0.0000191 -0.0002598 -0.0000287 -0.0003235 0.0001017 -0.0005415 -0.0000111 -0.0001100 0.0000434 -0.0002109 0.0000105 -0.0001376 0.0001931 -0.0004767 0.0001354 -0.0003271 0.0001233 -0.0003097 0.0000380 -0.0003814 0.0000129 -0.0004260 0.0000702 -0.0002906 0.0001105 -0.0003389 0.0001416 -0.0003914
0.0000195 -0.0000572 0.0001039 -0.0003324 0.0000254 0.0000825 0.0000179 -0.0000183 0.0000011 -0.0002055 0.0000078 -0.0000211 0.0000767 -0.0001981 0.0000415 -0.0000329 0.0000198 -0.0002658 -0.0000265 -0.0003211 0.0001058 -0.0005631 -0.0000102 -0.0001118 0.0000455 -0.0002146 0.0000109 -0.0001405 0.0001981 -0.0004932 0.0001378 -0.0003353 0.0001248 -0.0003218 0.0000441 -0.0004009 0.0000159 -0.0004451 0.0000723 -0.0003088 0.0001147 -0.0003453 0.0001477 -0.0004001
0.0000181 -0.0000559 0.0001082 -0.0003376 0.0000222 0.0000898 0.0000274 -0.0000218 0.0000033 -0.0002021 0.0000055 -0.0000230 0.0000809 -0.0002107 0.0000378 -0.0000274 0.0000213 -0.0002754 -0.0000242 -0.0003232 0.0001111 -0.0005921 -0.0000094 -0.0001158 0.0000472 -0.0002224 0.0000105 -0.0001455 0.0002031 -0.0005116 0.0001385 -0.0003477 0.0001258 -0.0003380 0.0000497 -0.0004241 0.0000191 -0.0004696 0.0000743 -0.0003327 0.0001191 -0.0003571 0.0001542 -0.0004112
0.0000192 -0.0000600 0.0001092 -0.0003436 0.0000206 0.0000996 0.0000262 -0.0000162 0.0000023 -0.0001984 0.0000041 -0.0000263 0.0000806 -0.0002288 0.0000402 -0.0000294 0.0000225 -0.0002869 -0.0000219 -0.0003293 0.0001163 -0.0006268 -0.0000096 -0.0001200 0.0000495 -0.0002347 0.0000099 -0.0001523 0.0002091 -0.0005360 0.0001392 -0.0003631 0.0001275 -0.0003583 0.0000555 -0.0004524 0.0000224 -0.0004970 0.0000758 -0.0003612 0.0001243 -0.0003727 0.0001607 -0.0004247
0.0000212 -0.0000620 0.0001129 -0.0003555 0.0000240 0.0001038 0.0000195 -0.0000084 0.0000041 -0.0002007 0.0000037 -0.0000305 0.0000831 -0.0002406 0.0000416 -0.0000312 0.0000237 -0.0002966 -0.0000197 -0.0003358 0.0001197 -0.0006468 -0.0000092 -0.0001236 0.0000520 -0.0002415 0.0000103 -0.0001553 0.0002147 -0.0005488 0.0001394 -0.0003654 0.0001286 -0.0003640 0.0000611 -0.0004686 0.0000264 -0.0005099 0.0000801 -0.0003668 0.0001279 -0.0003752 0.0001675 -0.0004248
0.0000155 -0.0000591 0.0001166 -0.0003549 0.0000192 0.0001183 0.0000186 -0.0000046 0.0000034 -0.0001944 0.0000018 -0.0000332 0.0000835 -0.0002377 0.0000426 -0.0000291 0.0000240 -0.0003039 -0.0000193 -0.0003386 0.0001232 -0.0006496 -0.0000090 -0.0001290 0.0000545 -0.0002473 0.0000106 -0.0001597 0.0002214 -0.0005597 0.0001389 -0.0003689 0.0001299 -0.0003717 0.0000663 -0.0004876 0.0000289 -0.0005236 0.0000840 -0.0003790 0.0001304 -0.0003819 0.0001743 -0.0004319
0.0000220 -0.0000656 0.0001202 -0.0003614 0.0000223 0.0001207 0.0000192 -0.0000006 0.0000032 -0.0001921 -0.0000006 -0.0000364 0.0000882 -0.0002493 0.0000421 -0.0000266 0.0000253 -0.0003149 -0.0000179 -0.0003455 0.0001273 -0.0006685 -0.0000099 -0.0001341 0.0000569 -0.0002594 0.0000106 -0.0001657 0.0002281 -0.0005779 0.0001404 -0.0003810 0.0001306 -0.0003839 0.0000692 -0.0005030 0.0000325 -0.0005417 0.0000878 -0.0003946 0.0001334 -0.0003903 0.0001806 -0.0004388
0.0000204 -0.0000629 0.0001236 -0.0003691 0.0000242 0.0001230 0.0000080 0.0000115 0.0000050 -0.0001923 -0.0000035 -0.0000411 0.0000860 -0.0002598 0.0000413 -0.0000264 0.0000267 -0.0003278 -0.0000160 -0.0003563 0.0001314 -0.0006900 -0.0000089 -0.0001432 0.0000591 -0.0002746 0.0000110 -0.0001737 0.0002340 -0.0005978 0.0001400 -0.0003929 0.0001310 -0.0003998 0.0000709 -0.0005224 0.0000368 -0.0005638 0.0000913 -0.0004151 0.0001369 -0.0004033 0.0001864 -0.0004506
0.0000183 -0.0000620 0.0001265 -0.0003811 0.0000273 0.0001245 0.0000129 0.0000123 0.0000057 -0.0001940 -0.0000079 -0.0000401 0.0000887 -0.0002809 0.0000431 -0.0000314 0.0000277 -0.0003420 -0.0000142 -0.0003710 0.0001363 -0.0007190 -0.0000082 -0.0001524 0.0000613 -0.0002929 0.0000104 -0.0001824 0.0002400 -0.0006222 0.0001410 -0.0004108 0.0001319 -0.0004195 0.0000760 -0.0005474 0.0000411 -0.0005885 0.0000947 -0.0004399 0.0001402 -0.0004170 0.0001918 -0.0004641
0.0000149 -0.0000615 0.0001299 -0.0003976 0.0000298 0.0001244 0.0000154 0.0000109 0.0000071 -0.0001991 -0.0000098 -0.0000448 0.0000911 -0.0003014 0.0000469 -0.0000382 0.0000291 -0.0003562 -0.0000130 -0.0003850 0.0001402 -0.0007431 -0.0000083 -0.0001586 0.0000637 -0.0003077 0.0000104 -0.0001881 0.0002463 -0.0006392 0.0001402 -0.0004153 0.0001322 -0.0004268 0.0000780 -0.0005589 0.0000439 -0.0005978 0.0001003 -0.0004441 0.0001445 -0.0004116 0.0001967 -0.0004672
0.0000157 -0.0000654 0.0001315 -0.0003969 0.0000289 0.0001414 0.0000124 0.0000177 0.0000076 -0.0001958 -0.0000091 -0.0000485 0.0000895 -0.0002886 0.0000490 -0.0000369 0.0000290 -0.0003633 -0.0000107 -0.0003930 0.0001425 -0.0007344 -0.0000098 -0.0001626 0.0000661 -0.0003135 0.0000112 -0.0001907 0.0002514 -0.0006406 0.0001380 -0.0004077 0.0001320 -0.0004216 0.0000832 -0.0005629 0.0000462 -0.0005959 0.0001073 -0.0004411 0.0001474 -0.0004039 0.0002004 -0.0004681
0.0000179 -0.0000681 0.0001336 -0.0004001 0.0000318 0.0001493 0.0000043 0.0000293 0.0000081 -0.0001934 -0.0000104 -0.0000488 0.0000836 -0.0002848 0.0000493 -0.0000359 0.0000291 -0.0003710 -0.0000095 -0.0004010 0.0001463 -0.0007402 -0.0000099 -0.0001687 0.0000680 -0.0003248 0.0000116 -0.0001963 0.0002566 -0.0006504 0.0001360 -0.0004108 0.0001309 -0.0004276 0.0000877 -0.0005734 0.0000484 -0.0006019 0.0001128 -0.0004507 0.0001504 -0.0004024 0.0002037 -0.0004754
0.0000184 -0.0000690 0.0001346 -0.0004044 0.0000347 0.0001573 0.0000029 0.0000350 0.0000086 -0.0001922 -0.0000099 -0.0000533 0.0000805 -0.0002872 0.0000518 -0.0000385 0.0000297 -0.0003794 -0.0000068 -0.0004121 0.0001506 -0.0007499 -0.0000112 -0.0001744 0.0000702 -0.0003381 0.0000113 -0.0002015 0.0002591 -0.0006626 0.0001357 -0.0004178 0.0001310 -0.0004370 0.0000916 -0.0005813 0.0000521 -0.0006119 0.0001185 -0.0004636 0.0001524 -0.0004056 0.0002077 -0.0004877
0.0000133 -0.0000634 0.0001356 -0.0004117 0.0000306 0.0001684 -0.0000038 0.0000413 0.0000081 -0.0001929 -0.0000126 -0.0000526 0.0000789 -0.0002942 0.0000547 -0.0000427 0.0000309 -0.0003891 -0.0000047 -0.0004243 0.0001556 -0.0007646 -0.0000125 -0.0001819 0.0000722 -0.0003540 0.0000110 -0.0002091 0.0002618 -0.0006780 0.0001356 -0.0004273 0.0001313 -0.0004495 0.0000944 -0.0005919 0.0000550 -0.0006236 0.0001233 -0.0004807 0.0001541 -0.0004138 0.0002110 -0.0005014
0.0000148 -0.0000663 0.0001377 -0.0004226 0.0000350 0.0001735 -0.0000112 0.0000460 0.0000090 -0.0001972 -0.0000143 -0.0000550 0.0000791 -0.0003005 0.0000564 -0.0000472 0.0000320 -0.0003982 -0.0000027 -0.0004374 0.0001611 -0.0007827 -0.0000133 -0.0001901 0.0000741 -0.0003720 0.0000107 -0.0002174 0.0002650 -0.0006950 0.0001357 -0.0004381 0.0001311 -0.0004617 0.0000966 -0.0006006 0.0000584 -0.0006338 0.0001292 -0.0004947 0.0001551 -0.0004186 0.0002143 -0.0005103
0.0000125 -0.0000616 0.0001398 -0.0004241 0.0000341 0.0001857 -0.0000089 0.0000489 0.0000080 -0.0001983 -0.0000157 -0.0000579 0.0000730 -0.0002869 0.0000571 -0.0000457 0.0000325 -0.0004008 -0.0000003 -0.0004451 0.0001632 -0.0007689 -0.0000159 -0.0001954 0.0000753 -0.0003767 0.0000098 -0.0002202 0.0002664 -0.0006910 0.0001335 -0.0004267 0.0001301 -0.0004529 0.0000964 -0.0005913 0.0000610 -0.0006243 0.0001366 -0.0004800 0.0001547 -0.0004135 0.0002171 -0.0005075
0.0000175 -0.0000633 0.0001410 -0.0004166 0.0000272 0.0002113 -0.0000062 0.0000456 0.0000068 -0.0001960 -0.0000154 -0.0000645 0.0000721 -0.0002734 0.0000570 -0.0000405 0.0000326 -0.0004007 0.0000009 -0.0004518 0.0001683 -0.0007532 -0.0000197 -0.0002068 0.0000751 -0.0003822 0.0000063 -0.0002304 0.0002678 -0.0006865 0.0001298 -0.0004202 0.0001292 -0.0004510 0.0000983 -0.0005866 0.0000647 -0.0006230 0.0001434 -0.0004760 0.0001531 -0.0004152 0.0002192 -0.0005123
0.0000137 -0.0000608 0.0001407 -0.0004144 0.0000296 0.0002182 -0.0000003 0.0000440 0.0000044 -0.0001986 -0.0000188 -0.0000728 0.0000674 -0.0002811 0.0000584 -0.0000386 0.0000343 -0.0003984 0.0000012 -0.0004617 0.0001716 -0.0007504 -0.0000242 -0.0002276 0.0000742 -0.0003931 -0.0000002 -0.0002543 0.0002717 -0.0006932 0.0001267 -0.0004183 0.0001281 -0.0004514 0.0000988 -0.0005789 0.0000658 -0.0006240 0.0001488 -0.0004850 0.0001523 -0.0004187 0.0002211 -0.0005203
0.0000138 -0.0000553 0.0001420 -0.0004142 0.0000343 0.0002245 -0.0000027 0.0000410 -0.0000003 -0.0002071 -0.0000253 -0.0000788 0.0000634 -0.0002939 0.0000582 -0.0000384 0.0000359 -0.0003979 0.0000013 -0.0004759 0.0001763 -0.0007541 -0.0000323 -0.0002536 0.0000726 -0.0004071 -0.0000093 -0.0002839 0.0002747 -0.0007002 0.0001244 -0.0004210 0.0001270 -0.0004556 0.0001013 -0.0005784 0.0000671 -0.0006305 0.0001540 -0.0004976 0.0001500 -0.0004262 0.0002230 -0.0005324
0.0000143 -0.0000551 0.0001437 -0.0004198 0.0000306 0.0002334 -0.0000091 0.0000332 -0.0000044 -0.0002230 -0.0000325 -0.0000845 0.0000649 -0.0003112 0.0000555 -0.0000427 0.0000361 -0.0004018 0.0000016 -0.0004961 0.0001815 -0.0007658 -0.0000416 -0.0002850 0.0000697 -0.0004229 -0.0000184 -0.0003162 0.0002777 -0.0007104 0.0001214 -0.0004215 0.0001261 -0.0004633 0.0001033 -0.0005775 0.0000682 -0.0006416 0.0001577 -0.0005134 0.0001491 -0.0004358 0.0002243 -0.0005454
0.0000079 -0.0000619 0.0001451 -0.0004300 0.0000267 0.0002339 -0.0000212 0.0000169 -0.0000129 -0.0002475 -0.0000372 -0.0000954 0.0000686 -0.0003374 0.0000489 -0.0000711 0.0000286 -0.0004220 0.0000009 -0.0005230 0.0001860 -0.0007819 -0.0000573 -0.0003375 0.0000652 -0.0004391 -0.0000305 -0.0003612 0.0002782 -0.0007210 0.0001213 -0.0004205 0.0001268 -0.0004716 0.0001046 -0.0005601 0.0000730 -0.0006345 0.0001658 -0.0005065 0.0001460 -0.0004397 0.0002264 -0.0005491
-0.0000045 -0.0000691 0.0001457 -0.0004281 0.0000261 0.0002394 -0.0000384 -0.0000013 -0.0000236 -0.0002676 -0.0000460 -0.0001058 0.0000584 -0.0003257 0.0000429 -0.0000842 0.0000234 -0.0004246 0.0000030 -0.0005253 0.0001881 -0.0007578 -0.0000720 -0.0003883 0.0000612 -0.0004396 -0.0000447 -0.0004043 0.0002804 -0.0007137 0.0001189 -0.0004006 0.0001258 -0.0004610 0.0001076 -0.0005284 0.0000769 -0.0006202 0.0001698 -0.0005102 0.0001443 -0.0004422 0.0002277 -0.0005533
-0.0000073 -0.0000782 0.0001450 -0.0004280 0.0000187 0.0002486 -0.0000565 -0.0000233 -0.0000321 -0.0002838 -0.0000569 -0.0001137 0.0000528 -0.0003393 0.0000404 -0.0000911 0.0000227 -0.0004194 0.0000047 -0.0005167 0.0001926 -0.0007473 -0.0000865 -0.0004377 0.0000564 -0.0004431 -0.0000596 -0.0004473 0.0002838 -0.0007136 0.0001163 -0.0003892 0.0001251 -0.0004567 0.0001088 -0.0005034 0.0000770 -0.0006168 0.0001712 -0.0005270 0.0001422 -0.0004462 0.0002281 -0.0005621
-0.0000119 -0.0000844 0.0001457 -0.0004314 0.0000157 0.0002492 -0.0000715 -0.0000450 -0.0000397 -0.0002948 -0.0000655 -0.0001248 0.0000447 -0.0003558 0.0000407 -0.0000989 0.0000241 -0.0004097 0.0000061 -0.0005118 0.0001968 -0.0007363 -0.0001005 -0.0004869 0.0000528 -0.0004484 -0.0000744 -0.0004880 0.0002878 -0.0007153 0.0001146 -0.0003806 0.0001252 -0.0004540 0.0001085 -0.0004795 0.0000746 -0.0006181 0.0001691 -0.0005606 0.0001410 -0.0004496 0.0002287 -0.0005739
-0.0000224 -0.0000867 0.0001451 -0.0004372 0.0000128 0.0002401 -0.0000842 -0.0000739 -0.0000453 -0.0003147 -0.0000734 -0.0001337 0.0000348 -0.0003786 0.0000372 -0.0001024 0.0000279 -0.0003940 0.0000076 -0.0005052 0.0002022 -0.0007293 -0.0001146 -0.0005358 0.0000485 -0.0004533 -0.0000901 -0.0005304 0.0002909 -0.0007134 0.0001103 -0.0003732 0.0001258 -0.0004556 0.0001088 -0.0004556 0.0000689 -0.0006226 0.0001650 -0.0006134 0.0001428 -0.0004376 0.0002273 -0.0005912
-0.0000256 -0.0000938 0.0001442 -0.0004441 0.0000092 0.0002375 -0.0000873 -0.0001029 -0.0000502 -0.0003271 -0.0000788 -0.0001376 0.0000294 -0.0003996 0.0000307 -0.0001025 0.0000318 -0.0003798 0.0000081 -0.0004959 0.0002074 -0.0007202 -0.0001272 -0.0005720 0.0000466 -0.0004572 -0.0001010 -0.0005608 0.0002940 -0.0007042 0.0001091 -0.0003657 0.0001272 -0.0004612 0.0001094 -0.0004349 0.0000644 -0.0006259 0.0001596 -0.0006670 0.0001472 -0.0004222 0.0002260 -0.0006080
-0.0000257 -0.0001022 0.0001441 -0.0004516 0.0000117 0.0002264 -0.0000973 -0.0001244 -0.0000538 -0.0003393 -0.0000814 -0.0001399 0.0000297 -0.0004221 0.0000293 -0.0001054 0.0000360 -0.0003611 0.0000102 -0.0004842 0.0002102 -0.0007009 -0.0001394 -0.0006103 0.0000444 -0.0004569 -0.0001135 -0.0005917 0.0002974 -0.0006881 0.0001065 -0.0003497 0.0001274 -0.0004544 0.0001113 -0.0004101 0.0000598 -0.0006174 0.0001559 -0.0007122 0.0001492 -0.0004067 0.0002254 -0.0006144
-0.0000372 -0.0001049 0.0001452 -0.0004551 0.0000043 0.0002253 -0.0001089 -0.0001534 -0.0000578 -0.0003517 -0.0000887 -0.0001382 0.0000293 -0.0004396 0.0000237 -0.0001110 0.0000387 -0.0003446 0.0000115 -0.0004702 0.0002145 -0.0006803 -0.0001517 -0.0006554 0.0000411 -0.0004552 -0.0001265 -0.0006245 0.0002995 -0.0006765 0.0001051 -0.0003358 0.0001267 -0.0004500 0.0001162 -0.0003890 0.0000553 -0.0006145 0.0001521 -0.0007610 0.0001496 -0.0004029 0.0002262 -0.0006227
-0.0000424 -0.0001196 0.0001419 -0.0004576 -0.0000071 0.0002207 -0.0001151 -0.0002049 -0.0000680 -0.0003706 -0.0000961 -0.0001419 0.0000293 -0.0004660 0.0000205 -0.0001228 0.0000414 -0.0003274 0.0000133 -0.0004492 0.0002184 -0.0006608 -0.0001674 -0.0007040 0.0000371 -0.0004520 -0.0001415 -0.0006653 0.0003013 -0.0006662 0.0001034 -0.0003214 0.0001270 -0.0004438 0.0001198 -0.0003583 0.0000508 -0.0006072 0.0001482 -0.0008113 0.0001494 -0.0004002 0.0002276 -0.0006283
-0.0000425 -0.0001307 0.0001428 -0.0004638 -0.0000129 0.0002088 -0.0001348 -0.0002476 -0.0000758 -0.0003873 -0.0001041 -0.0001484 0.0000313 -0.0005035 0.0000186 -0.0001329 0.0000462 -0.0003062 0.0000160 -0.0004260 0.0002231 -0.0006405 -0.0001829 -0.0007608 0.0000323 -0.0004486 -0.0001584 -0.0007159 0.0003026 -0.0006592 0.0001018 -0.0003103 0.0001275 -0.0004386 0.0001238 -0.0003286 0.0000458 -0.0006022 0.0001444 -0.0008701 0.0001503 -0.0003992 0.0002298 -0.0006339
-0.0000479 -0.0001389 0.0001421 -0.0004705 -0.0000176 0.0001978 -0.0001567 -0.0002917 -0.0000850 -0.0004065 -0.0001121 -0.0001542 0.0000256 -0.0005338 0.0000106 -0.0001416 0.0000504 -0.0002852 0.0000195 -0.0004037 0.0002272 -0.0006198 -0.0001972 -0.0008216 0.0000270 -0.0004445 -0.0001769 -0.0007676 0.0003051 -0.0006526 0.0000999 -0.0003020 0.0001279 -0.0004340 0.0001273 -0.0002986 0.0000426 -0.0005992 0.0001411 -0.0009273 0.0001481 -0.0004073 0.0002328 -0.0006355
-0.0000575 -0.0001457 0.0001426 -0.0004800 -0.0000227 0.0001799 -0.0001838 -0.0003384 -0.0000947 -0.0004273 -0.0001250 -0.0001594 0.0000280 -0.0005822 0.0000061 -0.0001576 0.0000543 -0.0002663 0.0000214 -0.0003797 0.0002305 -0.0005986 -0.0002116 -0.0008864 0.0000212 -0.0004391 -0.0001963 -0.0008232 0.0003063 -0.0006428 0.0001005 -0.0002971 0.0001288 -0.0004319 0.0001313 -0.0002682 0.0000374 -0.0005956 0.0001373 -0.0009881 0.0001469 -0.0004148 0.0002362 -0.0006354
-0.0000707 -0.0001517 0.0001412 -0.0004865 -0.0000298 0.0001698 -0.0002160 -0.0003848 -0.0001046 -0.0004447 -0.0001325 -0.0001653 0.0000302 -0.0006199 -0.0000011 -0.0001681 0.0000593 -0.0002464 0.0000247 -0.0003531 0.0002342 -0.0005738 -0.0002275 -0.0009458 0.0000165 -0.0004307 -0.0002142 -0.0008740 0.0003083 -0.0006306 0.0000992 -0.0002854 0.0001294 -0.0004260 0.0001350 -0.0002349 0.0000329 -0.0005909 0.0001337 -0.0010444 0.0001462 -0.0004188 0.0002402 -0.0006339
-0.0000739 -0.0001638 0.0001416 -0.0004941 -0.0000428 0.0001587 -0.0002426 -0.0004384 -0.0001138 -0.0004625 -0.0001440 -0.0001662 0.0000247 -0.0006531 -0.0000102 -0.0001816 0.0000627 -0.0002270 0.0000269 -0.0003260 0.0002376 -0.0005469 -0.0002419 -0.0010110 0.0000106 -0.0004196 -0.0002333 -0.0009283 0.0003130 -0.0006222 0.0000990 -0.0002762 0.0001299 -0.0004199 0.0001388 -0.0002007 0.0000263 -0.0005819 0.0001300 -0.0011050 0.0001468 -0.0004191 0.0002436 -0.0006294
-0.0000818 -0.0001782 0.0001427 -0.0005041 -0.0000452 0.0001371 -0.0002686 -0.0004942 -0.0001231 -0.0004789 -0.0001531 -0.0001691 0.0000210 -0.0006882 -0.0000168 -0.0001922 0.0000678 -0.0002032 0.0000303 -0.0002938 0.0002406 -0.0005180 -0.0002566 -0.0010717 0.0000056 -0.0004079 -0.0002523 -0.0009806 0.0003155 -0.0006095 0.0000969 -0.0002664 0.0001311 -0.0004145 0.0001432 -0.0001656 0.0000207 -0.0005738 0.0001254 -0.0011651 0.0001474 -0.0004145 0.0002473 -0.0006249
-0.0000916 -0.0001882 0.0001426 -0.0005120 -0.0000569 0.0001227 -0.0002838 -0.0005542 -0.0001337 -0.0004931 -0.0001616 -0.0001733 0.0000169 -0.0007282 -0.0000225 -0.0002056 0.0000732 -0.0001808 0.0000324 -0.0002626 0.0002435 -0.0004896 -0.0002718 -0.0011344 0.0000006 -0.0003971 -0.0002713 -0.0010352 0.0003170 -0.0005966 0.0000961 -0.0002594 0.0001325 -0.0004110 0.0001479 -0.0001305 0.0000135 -0.0005639 0.0001205 -0.0012288 0.0001488 -0.0004073 0.0002511 -0.0006217
-0.0000980 -0.0002024 0.0001430 -0.0005228 -0.0000571 0.0001040 -0.0003158 -0.0006109 -0.0001440 -0.0005090 -0.0001723 -0.0001732 0.0000173 -0.0007733 -0.0000294 -0.0002199 0.0000783 -0.0001573 0.0000343 -0.0002273 0.0002468 -0.0004610 -0.0002869 -0.0011965 -0.0000040 -0.0003859 -0.0002903 -0.0010916 0.0003179 -0.0005823 0.0000963 -0.0002566 0.0001341 -0.0004094 0.0001529 -0.0000951 0.0000073 -0.0005588 0.0001146 -0.0013075 0.0001521 -0.0004033 0.0002545 -0.0006226
-0.0001133 -0.0002052 0.0001429 -0.0005391 -0.0000545 0.0000726 -0.0003399 -0.0006619 -0.0001521 -0.0005224 -0.0001795 -0.0001728 0.0000174 -0.0008236 -0.0000351 -0.0002324 0.0000855 -0.0001363 0.0000381 -0.0001901 0.0002482 -0.0004434 -0.0002975 -0.0012482 -0.0000065 -0.0003749 -0.0003049 -0.0011337 0.0003212 -0.0005757 0.0000969 -0.0002539 0.0001357 -0.0004079 0.0001579 -0.0000642 -0.0000002 -0.0005511 0.0001079 -0.0013813 0.0001552 -0.0003910 0.0002580 -0.0006173
-0.0001222 -0.0002129 0.0001449 -0.0005499 -0.0000638 0.0000526 -0.0003652 -0.0007154 -0.0001591 -0.0005293 -0.0001832 -0.0001663 0.0000182 -0.0008426 -0.0000422 -0.0002473 0.0000892 -0.0001172 0.0000432 -0.0001475 0.0002493 -0.0004076 -0.0003071 -0.0012875 -0.0000082 -0.0003542 -0.0003144 -0.0011571 0.0003235 -0.0005574 0.0000979 -0.0002447 0.0001364 -0.0004013 0.0001654 -0.0000290 -0.0000052 -0.0005345 0.0001029 -0.0014388 0.0001571 -0.0003750 0.0002617 -0.0006092
-0.0001286 -0.0002303 0.0001432 -0.0005542 -0.0000768 0.0000356 -0.0003765 -0.0007697 -0.0001642 -0.0005272 -0.0001822 -0.0001604 0.0000142 -0.0008544 -0.0000484 -0.0002568 0.0000939 -0.0000951 0.0000493 -0.0000969 0.0002502 -0.0003691 -0.0003136 -0.0013150 -0.0000083 -0.0003311 -0.0003218 -0.0011732 0.0003255 -0.0005384 0.0000990 -0.0002351 0.0001375 -0.0003935 0.0001715 0.0000079 -0.0000090 -0.0005159 0.0000981 -0.0014992 0.0001599 -0.0003562 0.0002653 -0.0005988
-0.0001309 -0.0002412 0.0001438 -0.0005584 -0.0000789 0.0000225 -0.0003934 -0.0008147 -0.0001662 -0.0005176 -0.0001821 -0.0001533 0.0000113 -0.0008701 -0.0000511 -0.0002567 0.0001023 -0.0000645 0.0000547 -0.0000365 0.0002512 -0.0003247 -0.0003161 -0.0013357 -0.0000077 -0.0003042 -0.0003277 -0.0011841 0.0003259 -0.0005151 0.0001011 -0.0002286 0.0001385 -0.0003829 0.0001778 0.0000440 -0.0000128 -0.0004935 0.0000927 -0.0015552 0.0001614 -0.0003349 0.0002700 -0.0005883
-0.0001255 -0.0002406 0.0001436 -0.0005562 -0.0000769 0.0000114 -0.0003949 -0.0008497 -0.0001642 -0.0004957 -0.0001792 -0.0001489 0.0000111 -0.0008830 -0.0000435 -0.0002293 0.0001210 -0.0000130 0.0000606 0.0000318 0.0002535 -0.0002781 -0.0003084 -0.0013253 -0.0000042 -0.0002789 -0.0003298 -0.0011768 0.0003289 -0.0004947 0.0001013 -0.0002297 0.0001392 -0.0003739 0.0001831 0.0000575 -0.0000242 -0.0004932 0.0000815 -0.0016423 0.0001668 -0.0003198 0.0002726 -0.0005864
-0.0001179 -0.0002289 0.0001461 -0.0005675 -0.0000696 -0.0000108 -0.0003982 -0.0008736 -0.0001573 -0.0004797 -0.0001765 -0.0001392 0.0000165 -0.0009167 -0.0000373 -0.0002158 0.0001374 0.0000214 0.0000633 0.0000720 0.0002567 -0.0002673 -0.0002992 -0.0013119 -0.0000009 -0.0002645 -0.0003276 -0.0011637 0.0003298 -0.0004858 0.0001026 -0.0002411 0.0001404 -0.0003780 0.0001856 0.0000633 -0.0000314 -0.0004958 0.0000763 -0.0016998 0.0001698 -0.0003008 0.0002771 -0.0005764
-0.0001157 -0.0002205 0.0001493 -0.0005704 -0.0000702 -0.0000160 -0.0004012 -0.0008974 -0.0001553 -0.0004637 -0.0001718 -0.0001303 0.0000199 -0.0009094 -0.0000367 -0.0002090 0.0001461 0.0000447 0.0000671 0.0001043 0.0002572 -0.0002361 -0.0002921 -0.0012925 0.0000028 -0.0002405 -0.0003210 -0.0011360 0.0003279 -0.0004598 0.0001046 -0.0002395 0.0001400 -0.0003684 0.0001898 0.0000774 -0.0000338 -0.0004776 0.0000767 -0.0017245 0.0001720 -0.0002782 0.0002819 -0.0005594
-0.0001188 -0.0002104 0.0001512 -0.0005664 -0.0000692 -0.0000203 -0.0004128 -0.0009072 -0.0001552 -0.0004477 -0.0001695 -0.0001198 0.0000190 -0.0008938 -0.0000359 -0.0002008 0.0001527 0.0000672 0.0000708 0.0001462 0.0002562 -0.0002008 -0.0002849 -0.0012716 0.0000063 -0.0002127 -0.0003146 -0.0011119 0.0003273 -0.0004355 0.0001061 -0.0002355 0.0001388 -0.0003557 0.0001957 0.0000976 -0.0000327 -0.0004514 0.0000801 -0.0017265 0.0001739 -0.0002571 0.0002865 -0.0005371
-0.0001170 -0.0002013 0.0001563 -0.0005579 -0.0000666 -0.0000147 -0.0004194 -0.0009107 -0.0001535 -0.0004201 -0.0001693 -0.0001092 0.0000265 -0.0008757 -0.0000345 -0.0001902 0.0001572 0.0000849 0.0000748 0.0001897 0.0002543 -0.0001624 -0.0002744 -0.0012480 0.0000102 -0.0001824 -0.0003063 -0.0010825 0.0003266 -0.0004148 0.0001101 -0.0002290 0.0001379 -0.0003382 0.0002013 0.0001190 -0.0000276 -0.0004204 0.0000869 -0.0017029 0.0001700 -0.0002556 0.0002935 -0.0005083
-0.0001123 -0.0001986 0.0001597 -0.0005454 -0.0000666 -0.0000119 -0.0004183 -0.0009315 -0.0001568 -0.0004002 -0.0001698 -0.0001112 0.0000301 -0.0008620 -0.0000312 -0.0001830 0.0001604 0.0001015 0.0000793 0.0002314 0.0002526 -0.0001311 -0.0002693 -0.0012423 0.0000115 -0.0001564 -0.0003052 -0.0010700 0.0003245 -0.0004047 0.0001132 -0.0002320 0.0001364 -0.0003236 0.0002043 0.0001383 -0.0000227 -0.0004035 0.0000922 -0.0016891 0.0001646 -0.0002700 0.0002999 -0.0004909
-0.0001120 -0.0001932 0.0001646 -0.0005425 -0.0000651 -0.0000149 -0.0004170 -0.0009506 -0.0001596 -0.0003874 -0.0001732 -0.0001174 0.0000317 -0.0008678 -0.0000322 -0.0001761 0.0001639 0.0001111 0.0000832 0.0002645 0.0002539 -0.0001386 -0.0002637 -0.0012326 0.0000130 -0.0001394 -0.0003021 -0.0010573 0.0003204 -0.0004096 0.0001181 -0.0002460 0.0001359 -0.0003246 0.0002045 0.0001539 -0.0000172 -0.0003981 0.0000965 -0.0016759 0.0001621 -0.0002735 0.0003051 -0.0004752
-0.0000981 -0.0001884 0.0001689 -0.0005351 -0.0000678 -0.0000083 -0.0004214 -0.0009531 -0.0001619 -0.0003713 -0.0001743 -0.0001269 0.0000293 -0.0008576 -0.0000296 -0.0001586 0.0001686 0.0001285 0.0000872 0.0003017 0.0002529 -0.0001218 -0.0002573 -0.0012133 0.0000147 -0.0001119 -0.0002982 -0.0010374 0.0003176 -0.0003993 0.0001213 -0.0002478 0.0001353 -0.0003138 0.0002039 0.0001764 -0.0000126 -0.0003807 0.0001010 -0.0016507 0.0001613 -0.0002614 0.0003086 -0.0004564
-0.0000918 -0.0001713 0.0001754 -0.0005237 -0.0000651 0.0000080 -0.0004264 -0.0009278 -0.0001581 -0.0003412 -0.0001749 -0.0001275 0.0000310 -0.0008381 -0.0000256 -0.0001371 0.0001733 0.0001451 0.0000898 0.0003329 0.0002524 -0.0001059 -0.0002483 -0.0011845 0.0000173 -0.0000849 -0.0002912 -0.0010040 0.0003150 -0.0003863 0.0001262 -0.0002517 0.0001346 -0.0003060 0.0002056 0.0001906 -0.0000078 -0.0003678 0.0001056 -0.0016179 0.0001608 -0.0002441 0.0003107 -0.0004375
-0.0000912 -0.0001533 0.0001786 -0.0005037 -0.0000651 0.0000220 -0.0004229 -0.0009066 -0.0001565 -0.0003129 -0.0001732 -0.0001324 0.0000210 -0.0007941 -0.0000244 -0.0001159 0.0001755 0.0001575 0.0000928 0.0003617 0.0002506 -0.0000876 -0.0002398 -0.0011466 0.0000211 -0.0000571 -0.0002807 -0.0009579 0.0003141 -0.0003715 0.0001302 -0.0002487 0.0001333 -0.0002956 0.0002066 0.0002033 -0.0000008 -0.0003550 0.0001092 -0.0015754 0.0001595 -0.0002263 0.0003124 -0.0004195
-0.0000879 -0.0001419 0.0001855 -0.0004843 -0.0000582 0.0000317 -0.0004137 -0.0008855 -0.0001521 -0.0002825 -0.0001771 -0.0001284 0.0000306 -0.0007704 -0.0000177 -0.0000931 0.0001782 0.0001712 0.0000944 0.0003921 0.0002501 -0.0000742 -0.0002301 -0.0011061 0.0000256 -0.0000341 -0.0002690 -0.0009133 0.0003118 -0.0003639 0.0001362 -0.0002562 0.0001324 -0.0002971 0.0002080 0.0002050 0.0000032 -0.0003517 0.0001093 -0.0015543 0.0001600 -0.0002228 0.0003135 -0.0004138
-0.0000833 -0.0001250 0.0001905 -0.0004751 -0.0000517 0.0000410 -0.0004031 -0.0008646 -0.0001477 -0.0002583 -0.0001753 -0.0001298 0.0000281 -0.0007529 -0.0000161 -0.0000690 0.0001824 0.0001805 0.0000966 0.0004141 0.0002528 -0.0000983 -0.0002211 -0.0010646 0.0000302 -0.0000243 -0.0002568 -0.0008695 0.0003110 -0.0003782 0.0001420 -0.0002755 0.0001315 -0.0003099 0.0002092 0.0001979 0.0000108 -0.0003613 0.0001088 -0.0015357 0.0001597 -0.0002206 0.0003151 -0.0004117
-0.0000741 -0.0001112 0.0001966 -0.0004624 -0.0000432 0.0000420 -0.0003892 -0.0008415 -0.0001442 -0.0002357 -0.0001766 -0.0001324 0.0000320 -0.0007328 -0.0000108 -0.0000483 0.0001855 0.0001910 0.0000992 0.0004353 0.0002529 -0.0001009 -0.0002107 -0.0010279 0.0000342 -0.0000078 -0.0002467 -0.0008263 0.0003079 -0.0003769 0.0001473 -0.0002817 0.0001317 -0.0003099 0.0002084 0.0002020 0.0000184 -0.0003578 0.0001101 -0.0015011 0.0001599 -0.0002139 0.0003162 -0.0004025
-0.0000710 -0.0000907 0.0002035 -0.0004466 -0.0000410 0.0000581 -0.0003756 -0.0008146 -0.0001411 -0.0002098 -0.0001804 -0.0001337 0.0000401 -0.0007161 -0.0000024 -0.0000220 0.0001894 0.0002052 0.0001013 0.0004591 0.0002519 -0.0000999 -0.0002013 -0.0009861 0.0000389 0.0000080 -0.0002352 -0.0007799 0.0003040 -0.0003715 0.0001526 -0.0002860 0.0001316 -0.0003089 0.0002096 0.0002001 0.0000274 -0.0003564 0.0001117 -0.0014584 0.0001575 -0.0002049 0.0003176 -0.0003929
-0.0000668 -0.0000694 0.0002080 -0.0004211 -0.0000424 0.0000850 -0.0003480 -0.0007916 -0.0001370 -0.0001844 -0.0001829 -0.0001392 0.0000365 -0.0006794 0.0000024 0.0000036 0.0001913 0.0002146 0.0001030 0.0004791 0.0002509 -0.0000977 -0.0001916 -0.0009474 0.0000420 0.0000258 -0.0002235 -0.0007354 0.0003027 -0.0003687 0.0001588 -0.0002878 0.0001320 -0.0003066 0.0002097 0.0002022 0.0000353 -0.0003518 0.0001152 -0.0014146 0.0001560 -0.0001965 0.0003177 -0.0003825
-0.0000541 -0.0000545 0.0002141 -0.0004001 -0.0000287 0.0000974 -0.0003433 -0.0007523 -0.0001335 -0.0001588 -0.0001872 -0.0001417 0.0000400 -0.0006510 0.0000080 0.0000309 0.0001924 0.0002239 0.0001054 0.0004990 0.0002509 -0.0000991 -0.0001827 -0.0009061 0.0000460 0.0000407 -0.0002114 -0.0006891 0.0003001 -0.0003686 0.0001648 -0.0002982 0.0001315 -0.0003125 0.0002095 0.0001960 0.0000445 -0.0003614 0.0001167 -0.0013836 0.0001548 -0.0002004 0.0003183 -0.0003844
-0.0000502 -0.0000348 0.0002214 -0.0003916 -0.0000308 0.0001181 -0.0003251 -0.0007205 -0.0001282 -0.0001386 -0.0001873 -0.0001473 0.0000411 -0.0006349 0.0000157 0.0000494 0.0001951 0.0002245 0.0001080 0.0005078 0.0002529 -0.0001357 -0.0001720 -0.0008666 0.0000505 0.0000414 -0.0001979 -0.0006439 0.0002996 -0.0003895 0.0001723 -0.0003197 0.0001314 -0.0003330 0.0002116 0.0001763 0.0000532 -0.0003790 0.0001164 -0.0013560 0.0001534 -0.0002080 0.0003186 -0.0003889
-0.0000402 -0.0000232 0.0002252 -0.0003746 -0.0000327 0.0001417 -0.0003065 -0.0006944 -0.0001261 -0.0001204 -0.0001908 -0.0001499 0.0000391 -0.0006088 0.0000231 0.0000669 0.0001953 0.0002287 0.0001086 0.0005179 0.0002531 -0.0001492 -0.0001644 -0.0008297 0.0000542 0.0000483 -0.0001860 -0.0006021 0.0002974 -0.0003998 0.0001814 -0.0003319 0.0001321 -0.0003406 0.0002126 0.0001702 0.0000630 -0.0003834 0.0001187 -0.0013153 0.0001522 -0.0002114 0.0003184 -0.0003877
-0.0000328 -0.0000116 0.0002287 -0.0003533 -0.0000274 0.0001638 -0.0002931 -0.0006634 -0.0001220 -0.0001016 -0.0001931 -0.0001591 0.0000398 -0.0005874 0.0000290 0.0000901 0.0001974 0.0002339 0.0001099 0.0005286 0.0002547 -0.0001628 -0.0001544 -0.0007931 0.0000580 0.0000524 -0.0001742 -0.0005604 0.0002946 -0.0004071 0.0001886 -0.0003412 0.0001339 -0.0003488 0.0002110 0.0001618 0.0000717 -0.0003894 0.0001205 -0.0012714 0.0001511 -0.0002172 0.0003180 -0.0003854
-0.0000286 0.0000051 0.0002371 -0.0003374 -0.0000197 0.0001816 -0.0002886 -0.0006210 -0.0001186 -0.0000828 -0.0001961 -0.0001667 0.0000454 -0.0005679 0.0000360 0.0001116 0.0001984 0.0002386 0.0001099 0.0005361 0.0002553 -0.0001722 -0.0001460 -0.0007602 0.0000606 0.0000573 -0.0001616 -0.0005203 0.0002907 -0.0004132 0.0001954 -0.0003470 0.0001349 -0.0003545 0.0002121 0.0001517 0.0000791 -0.0003917 0.0001226 -0.0012245 0.0001496 -0.0002228 0.0003177 -0.0003843
-0.0000237 0.0000206 0.0002412 -0.0003151 -0.0000226 0.0002084 -0.0002811 -0.0005878 -0.0001172 -0.0000663 -0.0002011 -0.0001716 0.0000479 -0.0005466 0.0000413 0.0001320 0.0001979 0.0002408 0.0001122 0.0005394 0.0002555 -0.0001821 -0.0001388 -0.0007305 0.0000631 0.0000598 -0.0001509 -0.0004851 0.0002878 -0.0004228 0.0002026 -0.0003562 0.0001378 -0.0003637 0.0002111 0.0001443 0.0000879 -0.0003979 0.0001238 -0.0011847 0.0001486 -0.0002351 0.0003161 -0.0003882
-0.0000239 0.0000362 0.0002452 -0.0003034 -0.0000237 0.0002263 -0.0002778 -0.0005571 -0.0001152 -0.0000564 -0.0002062 -0.0001726 0.0000455 -0.0005416 0.0000471 0.0001433 0.0001978 0.0002363 0.0001132 0.0005376 0.0002591 -0.0002218 -0.0001319 -0.0007061 0.0000645 0.0000514 -0.0001395 -0.0004566 0.0002852 -0.0004502 0.0002090 -0.0003788 0.0001381 -0.0003882 0.0002093 0.0001281 0.0000985 -0.0004172 0.0001247 -0.0011568 0.0001465 -0.0002496 0.0003154 -0.0004001
-0.0000225 0.0000455 0.0002508 -0.0002915 -0.0000275 0.0002483 -0.0002629 -0.0005316 -0.0001136 -0.0000473 -0.0002073 -0.0001802 0.0000537 -0.0005330 0.0000492 0.0001564 0.0001956 0.0002329 0.0001144 0.0005366 0.0002602 -0.0002414 -0.0001282 -0.0006861 0.0000660 0.0000457 -0.0001299 -0.0004303 0.0002829 -0.0004674 0.0002173 -0.0003918 0.0001404 -0.0004041 0.0002076 0.0001175 0.0001078 -0.0004297 0.0001262 -0.0011214 0.0001454 -0.0002619 0.0003134 -0.0004093
-0.0000222 0.0000587 0.0002564 -0.0002776 -0.0000274 0.0002639 -0.0002488 -0.0005045 -0.0001121 -0.0000414 -0.0002105 -0.0001829 0.0000520 -0.0005248 0.0000555 0.0001663 0.0001956 0.0002325 0.0001135 0.0005322 0.0002613 -0.0002597 -0.0001229 -0.0006726 0.0000670 0.0000371 -0.0001248 -0.0004211 0.0002814 -0.0004875 0.0002251 -0.0004078 0.0001429 -0.0004230 0.0002063 0.0001095 0.0001150 -0.0004411 0.0001259 -0.0010998 0.0001456 -0.0002755 0.0003119 -0.0004185
-0.0000181 0.0000665 0.0002611 -0.0002665 -0.0000225 0.0002739 -0.0002308 -0.0004933 -0.0001119 -0.0000375 -0.0002103 -0.0001894 0.0000582 -0.0005224 0.0000572 0.0001780 0.0001940 0.0002286 0.0001144 0.0005253 0.0002632 -0.0002761 -0.0001190 -0.0006619 0.0000677 0.0000275 -0.0001191 -0.0004089 0.0002798 -0.0005059 0.0002319 -0.0004206 0.0001458 -0.0004417 0.0002042 0.0001009 0.0001217 -0.0004512 0.0001260 -0.0010753 0.0001448 -0.0002878 0.0003109 -0.0004307
-0.0000064 0.0000627 0.0002648 -0.0002567 -0.0000299 0.0002962 -0.0002160 -0.0004848 -0.0001130 -0.0000389 -0.0002104 -0.0001947 0.0000612 -0.0005149 0.0000585 0.0001828 0.0001912 0.0002226 0.0001143 0.0005160 0.0002645 -0.0002935 -0.0001192 -0.0006547 0.0000672 0.0000175 -0.0001138 -0.0004023 0.0002757 -0.0005215 0.0002381 -0.0004353 0.0001481 -0.0004619 0.0002021 0.0000913 0.0001281 -0.0004650 0.0001251 -0.0010557 0.0001446 -0.0003022 0.0003091 -0.0004458
-0.0000055 0.0000717 0.0002691 -0.0002535 -0.0000305 0.0003061 -0.0002125 -0.0004641 -0.0001118 -0.0000425 -0.0002124 -0.0001958 0.0000636 -0.0005286 0.0000603 0.0001836 0.0001910 0.0002143 0.0001156 0.0004997 0.0002675 -0.0003305 -0.0001180 -0.0006485 0.0000665 -0.0000021 -0.0001092 -0.0004008 0.0002754 -0.0005570 0.0002454 -0.0004618 0.0001516 -0.0004935 0.0002011 0.0000734 0.0001337 -0.0004837 0.0001241 -0.0010505 0.0001446 -0.0003190 0.0003073 -0.0004634
-0.0000000 0.0000749 0.0002708 -0.0002505 -0.0000269 0.0003131 -0.0002156 -0.0004468 -0.0001121 -0.0000457 -0.0002149 -0.0001941 0.0000685 -0.0005362 0.0000619 0.0001820 0.0001895 0.0002059 0.0001162 0.0004859 0.0002694 -0.0003492 -0.0001176 -0.0006443 0.0000659 -0.0000174 -0.0001048 -0.0003988 0.0002744 -0.0005781 0.0002519 -0.0004784 0.0001551 -0.0005161 0.0002006 0.0000605 0.0001378 -0.0004931 0.0001242 -0.0010398 0.0001447 -0.0003354 0.0003058 -0.0004805
-0.0000060 0.0000810 0.0002722 -0.0002482 -0.0000211 0.0003139 -0.0002120 -0.0004361 -0.0001130 -0.0000503 -0.0002153 -0.0001920 0.0000677 -0.0005357 0.0000617 0.0001797 0.0001883 0.0001966 0.0001158 0.0004719 0.0002709 -0.0003660 -0.0001174 -0.0006416 0.0000651 -0.0000339 -0.0001008 -0.0003990 0.0002749 -0.0005985 0.0002576 -0.0004963 0.0001590 -0.0005408 0.0002010 0.0000438 0.0001418 -0.0005047 0.0001231 -0.0010315 0.0001452 -0.0003522 0.0003045 -0.0004995
-0.0000080 0.0000816 0.0002748 -0.0002501 -0.0000176 0.0003216 -0.0002046 -0.0004295 -0.0001133 -0.0000585 -0.0002148 -0.0001919 0.0000638 -0.0005322 0.0000608 0.0001795 0.0001865 0.0001889 0.0001155 0.0004579 0.0002725 -0.0003785 -0.0001162 -0.0006399 0.0000652 -0.0000513 -0.0000973 -0.0004011 0.0002746 -0.0006152 0.0002639 -0.0005139 0.0001628 -0.0005630 0.0001997 0.0000285 0.0001454 -0.0005153 0.0001224 -0.0010265 0.0001453 -0.0003687 0.0003031 -0.0005173
-0.0000033 0.0000756 0.0002776 -0.0002548 -0.0000164 0.0003299 -0.0002008 -0.0004271 -0.0001134 -0.0000672 -0.0002149 -0.0001885 0.0000735 -0.0005444 0.0000588 0.0001784 0.0001847 0.0001803 0.0001139 0.0004438 0.0002739 -0.0003904 -0.0001144 -0.0006400 0.0000644 -0.0000674 -0.0000940 -0.0004044 0.0002743 -0.0006330 0.0002696 -0.0005329 0.0001661 -0.0005858 0.0001966 0.0000162 0.0001482 -0.0005248 0.0001214 -0.0010211 0.0001456 -0.0003856 0.0003024 -0.0005380
-0.0000056 0.0000759 0.0002786 -0.0002592 -0.0000202 0.0003382 -0.0002009 -0.0004198 -0.0001149 -0.0000759 -0.0002107 -0.0001885 0.0000681 -0.0005444 0.0000557 0.0001750 0.0001835 0.0001685 0.0001134 0.0004256 0.0002760 -0.0004119 -0.0001146 -0.0006402 0.0000633 -0.0000877 -0.0000907 -0.0004102 0.0002738 -0.0006555 0.0002744 -0.0005531 0.0001701 -0.0006114 0.0001956 0.0000005 0.0001529 -0.0005397 0.0001206 -0.0010202 0.0001455 -0.0004024 0.0003010 -0.0005587
-0.0000056 0.0000731 0.0002823 -0.0002710 -0.0000225 0.0003455 -0.0002017 -0.0004088 -0.0001159 -0.0000881 -0.0002083 -0.0001889 0.0000758 -0.0005494 0.0000570 0.0001680 0.0001816 0.0001573 0.0001121 0.0004074 0.0002767 -0.0004242 -0.0001134 -0.0006417 0.0000622 -0.0001057 -0.0000882 -0.0004153 0.0002716 -0.0006681 0.0002784 -0.0005701 0.0001749 -0.0006343 0.0001926 -0.0000138 0.0001554 -0.0005508 0.0001201 -0.0010183 0.0001458 -0.0004187 0.0003003 -0.0005802
-0.0000062 0.0000668 0.0002853 -0.0002834 -0.0000264 0.0003572 -0.0002015 -0.0004053 -0.0001169 -0.0001019 -0.0002096 -0.0001851 0.0000764 -0.0005475 0.0000558 0.0001607 0.0001792 0.0001451 0.0001103 0.0003887 0.0002778 -0.0004359 -0.0001133 -0.0006419 0.0000602 -0.0001227 -0.0000848 -0.0004204 0.0002711 -0.0006836 0.0002835 -0.0005881 0.0001794 -0.0006565 0.0001925 -0.0000337 0.0001569 -0.0005598 0.0001189 -0.0010149 0.0001451 -0.0004346 0.0003000 -0.0006017
-0.0000052 0.0000567 0.0002864 -0.0002948 -0.0000246 0.0003615 -0.0001982 -0.0004017 -0.0001178 -0.0001180 -0.0002047 -0.0001839 0.0000744 -0.0005412 0.0000521 0.0001548 0.0001769 0.0001313 0.0001091 0.0003687 0.0002782 -0.0004453 -0.0001132 -0.0006411 0.0000580 -0.0001391 -0.0000812 -0.0004246 0.0002703 -0.0006966 0.0002874 -0.0006053 0.0001836 -0.0006786 0.0001883 -0.0000485 0.0001582 -0.0005675 0.0001172 -0.0010125 0.0001470 -0.0004516 0.0002991 -0.0006232
-0.0000101 0.0000525 0.0002880 -0.0003121 -0.0000243 0.0003564 -0.0002035 -0.0003965 -0.0001197 -0.0001321 -0.0002006 -0.0001830 0.0000842 -0.0005500 0.0000500 0.0001474 0.0001747 0.0001170 0.0001072 0.0003486 0.0002785 -0.0004546 -0.0001131 -0.0006414 0.0000575 -0.0001573 -0.0000785 -0.0004278 0.0002695 -0.0007114 0.0002928 -0.0006268 0.0001880 -0.0007002 0.0001866 -0.0000673 0.0001596 -0.0005774 0.0001145 -0.0010105 0.0001486 -0.0004687 0.0002984 -0.0006456
-0.0000173 0.0000492 0.0002887 -0.0003281 -0.0000299 0.0003598 -0.0002026 -0.0003959 -0.0001207 -0.0001481 -0.0001969 -0.0001830 0.0000866 -0.0005465 0.0000472 0.0001385 0.0001726 0.0001029 0.0001053 0.0003291 0.0002788 -0.0004649 -0.0001132 -0.0006409 0.0000561 -0.0001721 -0.0000753 -0.0004316 0.0002696 -0.0007216 0.0002982 -0.0006396 0.0001929 -0.0007152 0.0001839 -0.0000792 0.0001587 -0.0005774 0.0001126 -0.0010029 0.0001493 -0.0004809 0.0002975 -0.0006636
-0.0000206 0.0000449 0.0002886 -0.0003403 -0.0000240 0.0003525 -0.0001940 -0.0003969 -0.0001235 -0.0001613 -0.0001946 -0.0001801 0.0000820 -0.0005337 0.0000428 0.0001328 0.0001696 0.0000899 0.0001022 0.0003106 0.0002783 -0.0004691 -0.0001120 -0.0006400 0.0000541 -0.0001855 -0.0000732 -0.0004360 0.0002692 -0.0007320 0.0003027 -0.0006557 0.0001975 -0.0007320 0.0001798 -0.0000912 0.0001580 -0.0005816 0.0001106 -0.0009994 0.0001501 -0.0004945 0.0002978 -0.0006844
-0.0000197 0.0000356 0.0002895 -0.0003599 -0.0000164 0.0003397 -0.0002040 -0.0003863 -0.0001250 -0.0001773 -0.0001902 -0.0001819 0.0000825 -0.0005257 0.0000394 0.0001223 0.0001673 0.0000747 0.0000996 0.0002908 0.0002787 -0.0004794 -0.0001110 -0.0006387 0.0000522 -0.0001986 -0.0000706 -0.0004404 0.0002685 -0.0007403 0.0003068 -0.0006722 0.0002019 -0.0007493 0.0001754 -0.0001052 0.0001581 -0.0005880 0.0001086 -0.0009943 0.0001500 -0.0005067 0.0002978 -0.0007038
-0.0000151 0.0000244 0.0002922 -0.0003842 -0.0000120 0.0003334 -0.0002014 -0.0003874 -0.0001266 -0.0001945 -0.0001861 -0.0001804 0.0000891 -0.0005283 0.0000365 0.0001116 0.0001648 0.0000589 0.0000962 0.0002715 0.0002781 -0.0004876 -0.0001104 -0.0006377 0.0000503 -0.0002107 -0.0000679 -0.0004444 0.0002690 -0.0007523 0.0003099 -0.0006891 0.0002062 -0.0007669 0.0001713 -0.0001193 0.0001590 -0.0005966 0.0001066 -0.0009905 0.0001503 -0.0005189 0.0002973 -0.0007238
-0.0000166 0.0000151 0.0002927 -0.0004053 -0.0000063 0.0003255 -0.0001993 -0.0003906 -0.0001279 -0.0002119 -0.0001846 -0.0001756 0.0000877 -0.0005205 0.0000348 0.0000995 0.0001624 0.0000420 0.0000940 0.0002498 0.0002783 -0.0004983 -0.0001097 -0.0006354 0.0000481 -0.0002210 -0.0000659 -0.0004469 0.0002695 -0.0007616 0.0003146 -0.0007095 0.0002116 -0.0007849 0.0001671 -0.0001324 0.0001587 -0.0006034 0.0001043 -0.0009864 0.0001507 -0.0005295 0.0002973 -0.0007445
-0.0000155 0.0000032 0.0002952 -0.0004314 -0.0000032 0.0003165 -0.0001999 -0.0003923 -0.0001293 -0.0002304 -0.0001806 -0.0001738 0.0000864 -0.0005126 0.0000336 0.0000836 0.0001596 0.0000242 0.0000894 0.0002303 0.0002788 -0.0005115 -0.0001088 -0.0006328 0.0000469 -0.0002326 -0.0000635 -0.0004500 0.0002679 -0.0007679 0.0003197 -0.0007292 0.0002157 -0.0008019 0.0001650 -0.0001482 0.0001583 -0.0006105 0.0001031 -0.0009789 0.0001525 -0.0005367 0.0002977 -0.0007609
-0.0000233 -0.0000003 0.0002976 -0.0004486 -0.0000033 0.0003154 -0.0002010 -0.0003900 -0.0001321 -0.0002420 -0.0001763 -0.0001752 0.0000933 -0.0004885 0.0000303 0.0000742 0.0001560 0.0000130 0.0000855 0.0002150 0.0002753 -0.0004921 -0.0001072 -0.0006278 0.0000458 -0.0002312 -0.0000620 -0.0004462 0.0002653 -0.0007535 0.0003240 -0.0007323 0.0002213 -0.0008030 0.0001617 -0.0001517 0.0001566 -0.0006040 0.0001023 -0.0009584 0.0001524 -0.0005393 0.0002964 -0.0007688
-0.0000197 -0.0000140 0.0002979 -0.0004660 -0.0000004 0.0003065 -0.0002066 -0.0003883 -0.0001357 -0.0002522 -0.0001738 -0.0001694 0.0000897 -0.0004685 0.0000284 0.0000611 0.0001531 -0.0000026 0.0000811 0.0001982 0.0002737 -0.0004927 -0.0001059 -0.0006228 0.0000442 -0.0002349 -0.0000597 -0.0004453 0.0002641 -0.0007514 0.0003263 -0.0007448 0.0002259 -0.0008136 0.0001595 -0.0001620 0.0001536 -0.0006046 0.0001005 -0.0009461 0.0001522 -0.0005443 0.0002963 -0.0007823
-0.0000182 -0.0000273 0.0002999 -0.0004878 -0.0000028 0.0003002 -0.0002129 -0.0003865 -0.0001373 -0.0002651 -0.0001693 -0.0001675 0.0000957 -0.0004574 0.0000251 0.0000494 0.0001497 -0.0000178 0.0000776 0.0001817 0.0002718 -0.0004948 -0.0001045 -0.0006176 0.0000425 -0.0002367 -0.0000572 -0.0004427 0.0002635 -0.0007514 0.0003291 -0.0007557 0.0002307 -0.0008234 0.0001565 -0.0001723 0.0001520 -0.0006064 0.0000990 -0.0009360 0.0001531 -0.0005505 0.0002960 -0.0007949
-0.0000246 -0.0000353 0.0003001 -0.0005082 -0.0000013 0.0002886 -0.0002181 -0.0003809 -0.0001381 -0.0002791 -0.0001658 -0.0001655 0.0001000 -0.0004483 0.0000239 0.0000331 0.0001465 -0.0000339 0.0000730 0.0001651 0.0002702 -0.0005015 -0.0001035 -0.0006119 0.0000406 -0.0002386 -0.0000545 -0.0004424 0.0002630 -0.0007525 0.0003345 -0.0007712 0.0002356 -0.0008358 0.0001538 -0.0001831 0.0001507 -0.0006122 0.0000965 -0.0009276 0.0001557 -0.0005581 0.0002949 -0.0008077
-0.0000328 -0.0000413 0.0003013 -0.0005300 0.0000080 0.0002690 -0.0002285 -0.0003726 -0.0001398 -0.0002914 -0.0001652 -0.0001590 0.0001048 -0.0004416 0.0000228 0.0000186 0.0001436 -0.0000506 0.0000689 0.0001482 0.0002690 -0.0005096 -0.0001026 -0.0006054 0.0000392 -0.0002419 -0.0000530 -0.0004417 0.0002630 -0.0007549 0.0003386 -0.0007860 0.0002404 -0.0008472 0.0001511 -0.0001957 0.0001487 -0.0006174 0.0000941 -0.0009200 0.0001560 -0.0005608 0.0002945 -0.0008184
-0.0000301 -0.0000566 0.0003016 -0.0005496 0.0000031 0.0002673 -0.0002300 -0.0003721 -0.0001414 -0.0003014 -0.0001647 -0.0001546 0.0001107 -0.0004194 0.0000188 0.0000121 0.0001400 -0.0000609 0.0000639 0.0001371 0.0002663 -0.0004950 -0.0001001 -0.0005973 0.0000382 -0.0002327 -0.0000512 -0.0004339 0.0002607 -0.0007368 0.0003394 -0.0007780 0.0002454 -0.0008402 0.0001471 -0.0001908 0.0001458 -0.0006039 0.0000939 -0.0008877 0.0001558 -0.0005509 0.0002945 -0.0008124
-0.0000349 -0.0000645 0.0003037 -0.0005569 -0.0000035 0.0002744 -0.0002271 -0.0003719 -0.0001429 -0.0003033 -0.0001610 -0.0001523 0.0001066 -0.0003762 0.0000164 0.0000096 0.0001359 -0.0000670 0.0000594 0.0001316 0.0002614 -0.0004604 -0.0000973 -0.0005863 0.0000366 -0.0002160 -0.0000491 -0.0004225 0.0002589 -0.0007134 0.0003406 -0.0007710 0.0002491 -0.0008305 0.0001458 -0.0001879 0.0001443 -0.0005949 0.0000924 -0.0008599 0.0001553 -0.0005454 0.0002937 -0.0008111
-0.0000388 -0.0000701 0.0003026 -0.0005653 -0.0000090 0.0002809 -0.0002216 -0.0003723 -0.0001444 -0.0003049 -0.0001592 -0.0001476 0.0001109 -0.0003556 0.0000153 0.0000050 0.0001324 -0.0000747 0.0000558 0.0001249 0.0002593 -0.0004517 -0.0000961 -0.0005762 0.0000356 -0.0002074 -0.0000478 -0.0004144 0.0002554 -0.0007004 0.0003424 -0.0007722 0.0002524 -0.0008283 0.0001428 -0.0001875 0.0001417 -0.0005890 0.0000910 -0.0008403 0.0001555 -0.0005425 0.0002924 -0.0008109
-0.0000407 -0.0000758 0.0003040 -0.0005756 -0.0000072 0.0002713 -0.0002043 -0.0003791 -0.0001462 -0.0003043 -0.0001560 -0.0001462 0.0001200 -0.0003451 0.0000131 -0.0000004 0.0001296 -0.0000828 0.0000518 0.0001190 0.0002573 -0.0004481 -0.0000946 -0.0005673 0.0000336 -0.0001979 -0.0000465 -0.0004078 0.0002549 -0.0006964 0.0003436 -0.0007753 0.0002555 -0.0008288 0.0001411 -0.0001881 0.0001398 -0.0005874 0.0000888 -0.0008260 0.0001558 -0.0005411 0.0002922 -0.0008160
-0.0000455 -0.0000751 0.0003043 -0.0005865 -0.0000067 0.0002605 -0.0001987 -0.0003761 -0.0001465 -0.0003055 -0.0001565 -0.0001387 0.0001209 -0.0003277 0.0000146 -0.0000101 0.0001274 -0.0000923 0.0000485 0.0001129 0.0002554 -0.0004531 -0.0000945 -0.0005563 0.0000326 -0.0001920 -0.0000446 -0.0004021 0.0002531 -0.0006931 0.0003464 -0.0007829 0.0002601 -0.0008345 0.0001405 -0.0001919 0.0001394 -0.0005920 0.0000858 -0.0008172 0.0001556 -0.0005408 0.0002913 -0.0008204
-0.0000434 -0.0000780 0.0003076 -0.0006036 -0.0000041 0.0002528 -0.0001981 -0.0003715 -0.0001472 -0.0003048 -0.0001543 -0.0001368 0.0001283 -0.0003152 0.0000159 -0.0000171 0.0001243 -0.0000976 0.0000457 0.0001101 0.0002512 -0.0004455 -0.0000919 -0.0005436 0.0000312 -0.0001763 -0.0000429 -0.0003900 0.0002505 -0.0006770 0.0003486 -0.0007744 0.0002636 -0.0008232 0.0001374 -0.0001810 0.0001362 -0.0005756 0.0000846 -0.0007864 0.0001554 -0.0005265 0.0002916 -0.0008100
-0.0000428 -0.0000842 0.0003070 -0.0005948 -0.0000085 0.0002554 -0.0001943 -0.0003690 -0.0001488 -0.0002940 -0.0001540 -0.0001327 0.0001290 -0.0002809 0.0000116 -0.0000122 0.0001212 -0.0000967 0.0000422 0.0001172 0.0002457 -0.0004068 -0.0000902 -0.0005281 0.0000296 -0.0001500 -0.0000408 -0.0003734 0.0002493 -0.0006504 0.0003495 -0.0007517 0.0002663 -0.0007994 0.0001338 -0.0001573 0.0001330 -0.0005486 0.0000841 -0.0007431 0.0001548 -0.0005077 0.0002902 -0.0007904
-0.0000512 -0.0000757 0.0003076 -0.0005829 -0.0000089 0.0002596 -0.0001824 -0.0003697 -0.0001503 -0.0002773 -0.0001496 -0.0001346 0.0001298 -0.0002521 0.0000099 -0.0000051 0.0001178 -0.0000939 0.0000407 0.0001250 0.0002423 -0.0003787 -0.0000879 -0.0005137 0.0000279 -0.0001280 -0.0000388 -0.0003600 0.0002477 -0.0006279 0.0003498 -0.0007400 0.0002680 -0.0007861 0.0001322 -0.0001414 0.0001313 -0.0005342 0.0000837 -0.0007170 0.0001538 -0.0004951 0.0002883 -0.0007789
-0.0000528 -0.0000694 0.0003085 -0.0005770 -0.0000014 0.0002549 -0.0001843 -0.0003612 -0.0001504 -0.0002609 -0.0001487 -0.0001312 0.0001348 -0.0002317 0.0000079 0.0000007 0.0001155 -0.0000923 0.0000387 0.0001355 0.0002397 -0.0003634 -0.0000849 -0.0005007 0.0000261 -0.0001064 -0.0000374 -0.0003473 0.0002465 -0.0006115 0.0003477 -0.0007263 0.0002699 -0.0007751 0.0001314 -0.0001247 0.0001293 -0.0005211 0.0000831 -0.0006944 0.0001530 -0.0004845 0.0002872 -0.0007701
-0.0000399 -0.0000759 0.0003075 -0.0005678 -0.0000012 0.0002583 -0.0001800 -0.0003520 -0.0001488 -0.0002466 -0.0001471 -0.0001262 0.0001347 -0.0002110 0.0000062 0.0000025 0.0001131 -0.0000904 0.0000366 0.0001463 0.0002375 -0.0003549 -0.0000823 -0.0004870 0.0000246 -0.0000883 -0.0000350 -0.0003363 0.0002429 -0.0005971 0.0003465 -0.0007168 0.0002714 -0.0007690 0.0001289 -0.0001104 0.0001276 -0.0005131 0.0000814 -0.0006779 0.0001519 -0.0004763 0.0002863 -0.0007649
-0.0000346 -0.0000741 0.0003082 -0.0005603 -0.0000091 0.0002650 -0.0001769 -0.0003464 -0.0001489 -0.0002308 -0.0001446 -0.0001239 0.0001385 -0.0001998 0.0000089 0.0000032 0.0001114 -0.0000885 0.0000366 0.0001563 0.0002345 -0.0003491 -0.0000793 -0.0004739 0.0000236 -0.0000719 -0.0000337 -0.0003249 0.0002426 -0.0005900 0.0003447 -0.0007085 0.0002733 -0.0007616 0.0001269 -0.0000962 0.0001273 -0.0005021 0.0000803 -0.0006541 0.0001514 -0.0004614 0.0002857 -0.0007504
-0.0000277 -0.0000724 0.0003088 -0.0005429 -0.0000106 0.0002728 -0.0001795 -0.0003356 -0.0001482 -0.0002097 -0.0001449 -0.0001197 0.0001400 -0.0001717 0.0000080 0.0000131 0.0001084 -0.0000779 0.0000363 0.0001754 0.0002300 -0.0003093 -0.0000781 -0.0004568 0.0000226 -0.0000417 -0.0000318 -0.0003074 0.0002412 -0.0005622 0.0003432 -0.0006780 0.0002745 -0.0007338 0.0001250 -0.0000675 0.0001258 -0.0004720 0.0000817 -0.0006114 0.0001498 -0.0004359 0.0002839 -0.0007236
-0.0000270 -0.0000654 0.0003121 -0.0005147 -0.0000167 0.0002937 -0.0001744 -0.0003294 -0.0001471 -0.0001821 -0.0001461 -0.0001142 0.0001433 -0.0001340 0.0000055 0.0000310 0.0001053 -0.0000633 0.0000368 0.0001989 0.0002252 -0.0002566 -0.0000768 -0.0004397 0.0000216 -0.0000103 -0.0000300 -0.0002905 0.0002386 -0.0005298 0.0003402 -0.0006512 0.0002735 -0.0007081 0.0001242 -0.0000406 0.0001234 -0.0004474 0.0000820 -0.0005806 0.0001484 -0.0004188 0.0002816 -0.0007037
-0.0000318 -0.0000558 0.0003115 -0.0004884 -0.0000279 0.0003128 -0.0001720 -0.0003179 -0.0001458 -0.0001554 -0.0001466 -0.0001088 0.0001376 -0.0001028 0.0000052 0.0000455 0.0001034 -0.0000514 0.0000382 0.0002202 0.0002211 -0.0002291 -0.0000748 -0.0004225 0.0000202 0.0000160 -0.0000288 -0.0002752 0.0002335 -0.0005048 0.0003382 -0.0006321 0.0002730 -0.0006905 0.0001217 -0.0000131 0.0001216 -0.0004280 0.0000816 -0.0005574 0.0001475 -0.0004042 0.0002801 -0.0006879
-0.0000307 -0.0000446 0.0003095 -0.0004621 -0.0000237 0.0003127 -0.0001615 -0.0003122 -0.0001449 -0.0001282 -0.0001451 -0.0001077 0.0001401 -0.0000840 0.0000047 0.0000572 0.0001017 -0.0000400 0.0000385 0.0002433 0.0002175 -0.0002080 -0.0000699 -0.0004084 0.0000198 0.0000373 -0.0000272 -0.0002627 0.0002301 -0.0004886 0.0003362 -0.0006145 0.0002720 -0.0006777 0.0001205 0.0000077 0.0001208 -0.0004144 0.0000803 -0.0005412 0.0001467 -0.0003943 0.0002778 -0.0006749
-0.0000279 -0.0000360 0.0003087 -0.0004383 -0.0000286 0.0003167 -0.0001516 -0.0003070 -0.0001431 -0.0001040 -0.0001441 -0.0001033 0.0001491 -0.0000757 0.0000028 0.0000700 0.0001003 -0.0000290 0.0000403 0.0002634 0.0002145 -0.0001947 -0.0000682 -0.0003945 0.0000180 0.0000571 -0.0000258 -0.0002508 0.0002269 -0.0004760 0.0003317 -0.0005970 0.0002709 -0.0006682 0.0001199 0.0000245 0.0001196 -0.0004020 0.0000786 -0.0005294 0.0001460 -0.0003851 0.0002759 -0.0006645
-0.0000247 -0.0000305 0.0003092 -0.0004172 -0.0000282 0.0003160 -0.0001535 -0.0002938 -0.0001418 -0.0000814 -0.0001449 -0.0000995 0.0001560 -0.0000732 0.0000011 0.0000820 0.0000991 -0.0000186 0.0000421 0.0002850 0.0002121 -0.0001844 -0.0000661 -0.0003833 0.0000168 0.0000741 -0.0000248 -0.0002421 0.0002270 -0.0004701 0.0003285 -0.0005785 0.0002697 -0.0006554 0.0001188 0.0000445 0.0001187 -0.0003850 0.0000781 -0.0005089 0.0001456 -0.0003689 0.0002755 -0.0006459
-0.0000296 -0.0000138 0.0003080 -0.0003802 -0.0000279 0.0003222 -0.0001543 -0.0002770 -0.0001390 -0.0000547 -0.0001446 -0.0000994 0.0001590 -0.0000435 -0.0000009 0.0000998 0.0000968 -0.0000009 0.0000453 0.0003115 0.0002073 -0.0001378 -0.0000656 -0.0003672 0.0000157 0.0001029 -0.0000229 -0.0002247 0.0002238 -0.0004444 0.0003265 -0.0005467 0.0002679 -0.0006260 0.0001172 0.0000755 0.0001178 -0.0003550 0.0000783 -0.0004778 0.0001450 -0.0003543 0.0002739 -0.0006254
-0.0000354 -0.0000018 0.0003086 -0.0003497 -0.0000346 0.0003441 -0.0001539 -0.0002649 -0.0001369 -0.0000260 -0.0001449 -0.0000984 0.0001582 -0.0000243 -0.0000039 0.0001177 0.0000955 0.0000136 0.0000481 0.0003351 0.0002043 -0.0001140 -0.0000641 -0.0003540 0.0000147 0.0001214 -0.0000210 -0.0002117 0.0002197 -0.0004287 0.0003241 -0.0005288 0.0002657 -0.0006107 0.0001168 0.0000952 0.0001162 -0.0003375 0.0000777 -0.0004610 0.0001427 -0.0003441 0.0002729 -0.0006133
-0.0000317 0.0000077 0.0003096 -0.0003232 -0.0000390 0.0003581 -0.0001467 -0.0002598 -0.0001364 0.0000003 -0.0001472 -0.0000950 0.0001575 -0.0000127 -0.0000032 0.0001320 0.0000948 0.0000273 0.0000518 0.0003563 0.0002005 -0.0000963 -0.0000621 -0.0003450 0.0000129 0.0001360 -0.0000202 -0.0002023 0.0002171 -0.0004230 0.0003202 -0.0005127 0.0002632 -0.0005981 0.0001175 0.0001095 0.0001152 -0.0003254 0.0000772 -0.0004506 0.0001410 -0.0003393 0.0002712 -0.0006045
-0.0000292 0.0000162 0.0003081 -0.0002996 -0.0000454 0.0003645 -0.0001295 -0.0002608 -0.0001338 0.0000207 -0.0001481 -0.0000981 0.0001604 -0.0000064 -0.0000042 0.0001437 0.0000947 0.0000372 0.0000554 0.0003708 0.0001988 -0.0000927 -0.0000601 -0.0003388 0.0000122 0.0001418 -0.0000196 -0.0001968 0.0002148 -0.0004238 0.0003168 -0.0005017 0.0002609 -0.0005939 0.0001184 0.0001159 0.0001140 -0.0003199 0.0000761 -0.0004502 0.0001412 -0.0003407 0.0002695 -0.0006013
-0.0000361 0.0000361 0.0003093 -0.0002811 -0.0000398 0.0003587 -0.0001289 -0.0002492 -0.0001327 0.0000369 -0.0001474 -0.0001082 0.0001592 0.0000001 -0.0000044 0.0001520 0.0000957 0.0000477 0.0000570 0.0003825 0.0001965 -0.0000916 -0.0000602 -0.0003292 0.0000116 0.0001444 -0.0000187 -0.0001914 0.0002121 -0.0004258 0.0003141 -0.0004961 0.0002580 -0.0005918 0.0001189 0.0001184 0.0001140 -0.0003177 0.0000742 -0.0004526 0.0001412 -0.0003454 0.0002680 -0.0006007
-0.0000327 0.0000463 0.0003094 -0.0002637 -0.0000405 0.0003596 -0.0001233 -0.0002306 -0.0001305 0.0000496 -0.0001509 -0.0001145 0.0001695 -0.0000036 -0.0000014 0.0001611 0.0000971 0.0000584 0.0000591 0.0003891 0.0001958 -0.0000970 -0.0000582 -0.0003151 0.0000115 0.0001430 -0.0000153 -0.0001767 0.0002108 -0.0004335 0.0003133 -0.0004875 0.0002566 -0.0005864 0.0001153 0.0001210 0.0001131 -0.0003091 0.0000740 -0.0004419 0.0001417 -0.0003439 0.0002670 -0.0005922
-0.0000278 0.0000522 0.0003107 -0.0002408 -0.0000391 0.0003620 -0.0001184 -0.0002200 -0.0001283 0.0000589 -0.0001508 -0.0001252 0.0001752 0.0000022 -0.0000004 0.0001669 0.0000964 0.0000647 0.0000609 0.0003895 0.0001929 -0.0000878 -0.0000591 -0.0003134 0.0000097 0.0001396 -0.0000146 -0.0001743 0.0002099 -0.0004375 0.0003120 -0.0004806 0.0002544 -0.0005830 0.0001129 0.0001177 0.0001123 -0.0003088 0.0000737 -0.0004372 0.0001410 -0.0003499 0.0002662 -0.0005930
-0.0000240 0.0000622 0.0003086 -0.0002259 -0.0000357 0.0003592 -0.0001218 -0.0002034 -0.0001276 0.0000593 -0.0001515 -0.0001336 0.0001777 -0.0000039 -0.0000002 0.0001685 0.0000965 0.0000667 0.0000624 0.0003797 0.0001901 -0.0000960 -0.0000618 -0.0003161 0.0000078 0.0001271 -0.0000167 -0.0001830 0.0002072 -0.0004450 0.0003090 -0.0004793 0.0002520 -0.0005846 0.0001091 0.0001094 0.0001097 -0.0003144 0.0000728 -0.0004398 0.0001406 -0.0003586 0.0002662 -0.0005962
-0.0000225 0.0000646 0.0003079 -0.0002183 -0.0000345 0.0003608 -0.0001309 -0.0001870 -0.0001278 0.0000543 -0.0001510 -0.0001436 0.0001771 -0.0000125 -0.0000018 0.0001712 0.0000959 0.0000669 0.0000640 0.0003640 0.0001880 -0.0001062 -0.0000610 -0.0003215 0.0000059 0.0001109 -0.0000181 -0.0001891 0.0002066 -0.0004584 0.0003073 -0.0004815 0.0002488 -0.0005885 0.0001074 0.0000887 0.0001056 -0.0003213 0.0000723 -0.0004483 0.0001423 -0.0003743 0.0002663 -0.0006043
-0.0000253 0.0000707 0.0003047 -0.0002117 -0.0000345 0.0003608 -0.0001192 -0.0001791 -0.0001287 0.0000411 -0.0001549 -0.0001494 0.0001784 -0.0000206 -0.0000050 0.0001703 0.0000963 0.0000630 0.0000631 0.0003416 0.0001870 -0.0001262 -0.0000649 -0.0003266 0.0000039 0.0000889 -0.0000189 -0.0001935 0.0002065 -0.0004782 0.0003057 -0.0004895 0.0002462 -0.0005965 0.0001057 0.0000640 0.0001023 -0.0003357 0.0000725 -0.0004524 0.0001429 -0.0003921 0.0002661 -0.0006151
-0.0000279 0.0000718 0.0003030 -0.0002126 -0.0000346 0.0003562 -0.0001208 -0.0001683 -0.0001294 0.0000200 -0.0001550 -0.0001591 0.0001874 -0.0000381 -0.0000048 0.0001598 0.0000946 0.0000544 0.0000624 0.0003087 0.0001857 -0.0001518 -0.0000691 -0.0003400 0.0000014 0.0000623 -0.0000216 -0.0002087 0.0002065 -0.0004996 0.0003039 -0.0004996 0.0002438 -0.0006074 0.0001039 0.0000327 0.0000991 -0.0003561 0.0000729 -0.0004653 0.0001436 -0.0004090 0.0002673 -0.0006283
-0.0000258 0.0000676 0.0002997 -0.0002153 -0.0000310 0.0003456 -0.0001324 -0.0001543 -0.0001338 -0.0000022 -0.0001578 -0.0001652 0.0001859 -0.0000449 -0.0000072 0.0001526 0.0000944 0.0000457 0.0000582 0.0002752 0.0001819 -0.0001615 -0.0000745 -0.0003552 -0.0000007 0.0000383 -0.0000268 -0.0002284 0.0002071 -0.0005167 0.0003020 -0.0005063 0.0002416 -0.0006127 0.0001013 0.0000042 0.0000936 -0.0003705 0.0000735 -0.0004793 0.0001452 -0.0004257 0.0002683 -0.0006394
-0.0000357 0.0000712 0.0002967 -0.0002222 -0.0000302 0.0003395 -0.0001298 -0.0001491 -0.0001365 -0.0000293 -0.0001590 -0.0001753 0.0001819 -0.0000568 -0.0000067 0.0001421 0.0000941 0.0000345 0.0000546 0.0002338 0.0001805 -0.0001854 -0.0000803 -0.0003701 -0.0000030 0.0000050 -0.0000301 -0.0002464 0.0002076 -0.0005439 0.0003036 -0.0005252 0.0002393 -0.0006241 0.0000989 -0.0000343 0.0000890 -0.0003921 0.0000735 -0.0004934 0.0001463 -0.0004462 0.0002694 -0.0006539
-0.0000468 0.0000735 0.0002966 -0.0002376 -0.0000304 0.0003300 -0.0001416 -0.0001397 -0.0001400 -0.0000637 -0.0001629 -0.0001809 0.0001801 -0.0000737 -0.0000083 0.0001268 0.0000924 0.0000176 0.0000518 0.0001829 0.0001792 -0.0002142 -0.0000861 -0.0003891 -0.0000064 -0.0000296 -0.0000335 -0.0002659 0.0002099 -0.0005730 0.0003047 -0.0005431 0.0002371 -0.0006359 0.0000972 -0.0000753 0.0000844 -0.0004164 0.0000746 -0.0005085 0.0001485 -0.0004704 0.0002703 -0.0006706
-0.0000563 0.0000728 0.0002966 -0.0002591 -0.0000237 0.0003148 -0.0001336 -0.0001420 -0.0001448 -0.0001005 -0.0001653 -0.0001878 0.0001812 -0.0000970 -0.0000101 0.0001048 0.0000906 -0.0000031 0.0000461 0.0001260 0.0001778 -0.0002468 -0.0000924 -0.0004116 -0.0000097 -0.0000685 -0.0000382 -0.0002902 0.0002140 -0.0006084 0.0003070 -0.0005621 0.0002350 -0.0006498 0.0000964 -0.0001201 0.0000792 -0.0004443 0.0000751 -0.0005298 0.0001502 -0.0004938 0.0002713 -0.0006888
-0.0000692 0.0000706 0.0002948 -0.0002812 -0.0000247 0.0003030 -0.0001261 -0.0001463 -0.0001492 -0.0001423 -0.0001679 -0.0001947 0.0001822 -0.0001145 -0.0000097 0.0000824 0.0000895 -0.0000256 0.0000410 0.0000636 0.0001771 -0.0002847 -0.0000991 -0.0004339 -0.0000130 -0.0001097 -0.0000419 -0.0003142 0.0002153 -0.0006376 0.0003076 -0.0005837 0.0002334 -0.0006659 0.0000927 -0.0001664 0.0000750 -0.0004755 0.0000747 -0.0005543 0.0001529 -0.0005199 0.0002732 -0.0007100
-0.0000747 0.0000644 0.0002902 -0.0003049 -0.0000242 0.0002848 -0.0001319 -0.0001423 -0.0001538 -0.0001862 -0.0001684 -0.0002014 0.0001832 -0.0001382 -0.0000092 0.0000621 0.0000881 -0.0000490 0.0000342 -0.0000008 0.0001763 -0.0003256 -0.0001058 -0.0004596 -0.0000162 -0.0001523 -0.0000470 -0.0003401 0.0002183 -0.0006627 0.0003078 -0.0006010 0.0002317 -0.0006847 0.0000906 -0.0002181 0.0000699 -0.0005063 0.0000724 -0.0005795 0.0001668 -0.0005063 0.0002739 -0.0007359
-0.0000741 0.0000592 0.0002893 -0.0003228 -0.0000146 0.0002673 -0.0001298 -0.0001211 -0.0001475 -0.0002161 -0.0001559 -0.0001965 0.0001921 -0.0001386 -0.0000079 0.0000581 0.0000761 -0.0000794 0.0000241 -0.0000627 0.0001755 -0.0003572 -0.0001173 -0.0004821 -0.0000164 -0.0001942 -0.0000465 -0.0003650 0.0002288 -0.0006676 0.0003118 -0.0006121 0.0002282 -0.0007130 0.0000907 -0.0002723 0.0000619 -0.0005402 0.0000701 -0.0005999 0.0001786 -0.0004948 0.0002756 -0.0007567
-0.0000804 0.0000530 0.0002891 -0.0003435 -0.0000185 0.0002662 -0.0001165 -0.0001081 -0.0001462 -0.0002556 -0.0001512 -0.0001940 0.0001968 -0.0001393 -0.0000064 0.0000445 0.0000682 -0.0001104 0.0000132 -0.0001404 0.0001747 -0.0003925 -0.0001279 -0.0005046 -0.0000183 -0.0002390 -0.0000485 -0.0003915 0.0002361 -0.0006781 0.0003143 -0.0006345 0.0002261 -0.0007343 0.0000868 -0.0003252 0.0000527 -0.0005753 0.0000700 -0.0006266 0.0001874 -0.0004991 0.0002784 -0.0007720
-0.0000887 0.0000458 0.0002889 -0.0003704 -0.0000107 0.0002529 -0.0001187 -0.0000934 -0.0001495 -0.0003044 -0.0001488 -0.0001955 0.0001942 -0.0001384 -0.0000060 0.0000218 0.0000620 -0.0001426 0.0000026 -0.0002247 0.0001731 -0.0004278 -0.0001352 -0.0005330 -0.0000203 -0.0002864 -0.0000521 -0.0004228 0.0002444 -0.0006967 0.0003169 -0.0006591 0.0002243 -0.0007512 0.0000829 -0.0003774 0.0000444 -0.0006096 0.0000704 -0.0006491 0.0001930 -0.0005118 0.0002825 -0.0007873
-0.0000922 0.0000361 0.0002877 -0.0003999 -0.0000089 0.0002427 -0.0001085 -0.0000850 -0.0001512 -0.0003593 -0.0001450 -0.0001971 0.0001968 -0.0001483 -0.0000073 0.0000045 0.0000573 -0.0001721 -0.0000096 -0.0003128 0.0001715 -0.0004657 -0.0001462 -0.0005590 -0.0000238 -0.0003334 -0.0000564 -0.0004558 0.0002508 -0.0007139 0.0003191 -0.0006834 0.0002223 -0.0007660 0.0000759 -0.0004299 0.0000371 -0.0006448 0.0000717 -0.0006669 0.0001983 -0.0005259 0.0002860 -0.0008016
-0.0000907 0.0000234 0.0002867 -0.0004315 -0.0000051 0.0002307 -0.0001023 -0.0000811 -0.0001573 -0.0004138 -0.0001408 -0.0001978 0.0001986 -0.0001600 -0.0000074 -0.0000159 0.0000516 -0.0002056 -0.0000235 -0.0004051 0.0001713 -0.0005120 -0.0001567 -0.0005922 -0.0000281 -0.0003854 -0.0000612 -0.0004966 0.0002569 -0.0007325 0.0003219 -0.0007158 0.0002204 -0.0007881 0.0000721 -0.0004918 0.0000296 -0.0006886 0.0000728 -0.0006899 0.0002046 -0.0005442 0.0002898 -0.0008201
-0.0000882 0.0000107 0.0002836 -0.0004621 0.0000056 0.0002007 -0.0000973 -0.0000749 -0.0001635 -0.0004731 -0.0001393 -0.0001931 0.0002033 -0.0001707 -0.0000043 -0.0000425 0.0000452 -0.0002392 -0.0000374 -0.0005009 0.0001708 -0.0005556 -0.0001691 -0.0006234 -0.0000321 -0.0004334 -0.0000672 -0.0005361 0.0002664 -0.0007499 0.0003236 -0.0007394 0.0002181 -0.0008004 0.0000680 -0.0005493 0.0000229 -0.0007271 0.0000740 -0.0007038 0.0002097 -0.0005578 0.0002930 -0.0008326
-0.0000906 -0.0000030 0.0002815 -0.0004918 0.0000111 0.0001857 -0.0000881 -0.0000710 -0.0001690 -0.0005328 -0.0001352 -0.0001960 0.0002081 -0.0001750 -0.0000091 -0.0000654 0.0000377 -0.0002730 -0.0000529 -0.0005963 0.0001704 -0.0005928 -0.0001808 -0.0006531 -0.0000366 -0.0004763 -0.0000732 -0.0005746 0.0002722 -0.0007553 0.0003265 -0.0007600 0.0002161 -0.0008093 0.0000643 -0.0006021 0.0000141 -0.0007582 0.0000756 -0.0007162 0.0002136 -0.0005682 0.0002973 -0.0008433
-0.0000915 -0.0000147 0.0002798 -0.0005198 0.0000133 0.0001688 -0.0000935 -0.0000611 -0.0001771 -0.0005911 -0.0001302 -0.0001979 0.0002103 -0.0001833 -0.0000098 -0.0000906 0.0000295 -0.0003028 -0.0000681 -0.0006899 0.0001696 -0.0006251 -0.0001908 -0.0006827 -0.0000408 -0.0005139 -0.0000797 -0.0006095 0.0002813 -0.0007631 0.0003284 -0.0007753 0.0002138 -0.0008124 0.0000573 -0.0006419 0.0000069 -0.0007870 0.0000775 -0.0007195 0.0002173 -0.0005760 0.0003012 -0.0008480
-0.0000908 -0.0000302 0.0002784 -0.0005443 0.0000202 0.0001513 -0.0000806 -0.0000652 -0.0001842 -0.0006490 -0.0001268 -0.0001944 0.0002215 -0.0001934 -0.0000124 -0.0001151 0.0000210 -0.0003343 -0.0000822 -0.0007806 0.0001681 -0.0006553 -0.0002014 -0.0007154 -0.0000460 -0.0005483 -0.0000855 -0.0006454 0.0002874 -0.0007672 0.0003319 -0.0007882 0.0002116 -0.0008113 0.0000519 -0.0006814 -0.0000018 -0.0008123 0.0000809 -0.0007171 0.0002198 -0.0005817 0.0003059 -0.0008512
-0.0000928 -0.0000426 0.0002749 -0.0005648 0.0000216 0.0001346 -0.0000859 -0.0000733 -0.0001931 -0.0007043 -0.0001208 -0.0001908 0.0002178 -0.0001965 -0.0000178 -0.0001453 0.0000120 -0.0003672 -0.0000956 -0.0008682 0.0001660 -0.0006814 -0.0002133 -0.0007548 -0.0000514 -0.0005803 -0.0000935 -0.0006898 0.0002936 -0.0007697 0.0003325 -0.0007995 0.0002093 -0.0008118 0.0000487 -0.0007183 -0.0000096 -0.0008431 0.0000833 -0.0007233 0.0002215 -0.0005924 0.0003096 -0.0008582
-0.0000994 -0.0000493 0.0002717 -0.0005931 0.0000190 0.0001250 -0.0000874 -0.0000735 -0.0002007 -0.0007573 -0.0001174 -0.0001849 0.0002171 -0.0002063 -0.0000220 -0.0001691 0.0000055 -0.0003927 -0.0001087 -0.0009490 0.0001661 -0.0007167 -0.0002211 -0.0007774 -0.0000559 -0.0006065 -0.0000979 -0.0007181 0.0002996 -0.0007748 0.0003362 -0.0008118 0.0002077 -0.0008079 0.0000452 -0.0007462 -0.0000161 -0.0008669 0.0000846 -0.0007233 0.0002236 -0.0005959 0.0003129 -0.0008566
-0.0001048 -0.0000580 0.0002710 -0.0006134 0.0000088 0.0001243 -0.0000869 -0.0000738 -0.0002082 -0.0008003 -0.0001156 -0.0001785 0.0002125 -0.0001959 -0.0000226 -0.0001918 -0.0000018 -0.0004146 -0.0001211 -0.0010181 0.0001661 -0.0007357 -0.0002285 -0.0007934 -0.0000594 -0.0006236 -0.0000992 -0.0007341 0.0003042 -0.0007691 0.0003398 -0.0008132 0.0002053 -0.0007980 0.0000435 -0.0007691 -0.0000228 -0.0008824 0.0000870 -0.0007136 0.0002257 -0.0005950 0.0003147 -0.0008507
-0.0001062 -0.0000630 0.0002689 -0.0006262 0.0000063 0.0001195 -0.0000711 -0.0000845 -0.0002154 -0.0008369 -0.0001146 -0.0001753 0.0002111 -0.0001854 -0.0000257 -0.0002101 -0.0000084 -0.0004321 -0.0001329 -0.0010814 0.0001651 -0.0007498 -0.0002370 -0.0008083 -0.0000631 -0.0006360 -0.0001021 -0.0007532 0.0003085 -0.0007601 0.0003399 -0.0008100 0.0002034 -0.0007850 0.0000382 -0.0007777 -0.0000295 -0.0008935 0.0000894 -0.0006999 0.0002271 -0.0005877 0.0003164 -0.0008404
-0.0000987 -0.0000764 0.0002688 -0.0006335 0.0000040 0.0001093 -0.0000737 -0.0000809 -0.0002221 -0.0008667 -0.0001067 -0.0001767 0.0002027 -0.0001691 -0.0000232 -0.0002277 -0.0000155 -0.0004456 -0.0001431 -0.0011369 0.0001645 -0.0007572 -0.0002424 -0.0008232 -0.0000664 -0.0006436 -0.0001056 -0.0007747 0.0003114 -0.0007452 0.0003416 -0.0008044 0.0002015 -0.0007684 0.0000348 -0.0007857 -0.0000347 -0.0009018 0.0000905 -0.0006924 0.0002277 -0.0005776 0.0003180 -0.0008264
-0.0001015 -0.0000710 0.0002686 -0.0006378 0.0000067 0.0001057 -0.0000660 -0.0000848 -0.0002294 -0.0008899 -0.0001036 -0.0001722 0.0002013 -0.0001587 -0.0000261 -0.0002366 -0.0000223 -0.0004561 -0.0001530 -0.0011838 0.0001641 -0.0007623 -0.0002469 -0.0008320 -0.0000685 -0.0006471 -0.0001065 -0.0007863 0.0003154 -0.0007304 0.0003440 -0.0007962 0.0001989 -0.0007484 0.0000328 -0.0007911 -0.0000393 -0.0009047 0.0000924 -0.0006706 0.0002283 -0.0005672 0.0003185 -0.0008094
-0.0000998 -0.0000712 0.0002691 -0.0006366 0.0000006 0.0001054 -0.0000481 -0.0000932 -0.0002323 -0.0009097 -0.0001025 -0.0001672 0.0002082 -0.0001481 -0.0000278 -0.0002449 -0.0000296 -0.0004654 -0.0001608 -0.0012266 0.0001650 -0.0007742 -0.0002503 -0.0008355 -0.0000709 -0.0006500 -0.0001047 -0.0007871 0.0003185 -0.0007169 0.0003471 -0.0007879 0.0001950 -0.0007285 0.0000290 -0.0007918 -0.0000424 -0.0009075 0.0000939 -0.0006430 0.0002290 -0.0005564 0.0003188 -0.0007900
-0.0000907 -0.0000803 0.0002680 -0.0006266 -0.0000075 0.0001092 -0.0000422 -0.0000970 -0.0002369 -0.0009250 -0.0001020 -0.0001615 0.0002062 -0.0001239 -0.0000292 -0.0002527 -0.0000378 -0.0004728 -0.0001681 -0.0012596 0.0001647 -0.0007762 -0.0002544 -0.0008382 -0.0000730 -0.0006445 -0.0001042 -0.0007906 0.0003198 -0.0006960 0.0003472 -0.0007702 0.0001910 -0.0007036 0.0000280 -0.0007864 -0.0000466 -0.0009066 0.0000950 -0.0006193 0.0002278 -0.0005395 0.0003184 -0.0007659
-0.0000849 -0.0000791 0.0002665 -0.0006126 -0.0000089 0.0001114 -0.0000412 -0.0000933 -0.0002438 -0.0009290 -0.0000976 -0.0001609 0.0002107 -0.0001079 -0.0000327 -0.0002513 -0.0000441 -0.0004741 -0.0001754 -0.0012808 0.0001645 -0.0007729 -0.0002549 -0.0008392 -0.0000742 -0.0006348 -0.0001038 -0.0007927 0.0003206 -0.0006713 0.0003485 -0.0007517 0.0001868 -0.0006747 0.0000254 -0.0007710 -0.0000506 -0.0008991 0.0000958 -0.0005899 0.0002262 -0.0005194 0.0003179 -0.0007371
-0.0000748 -0.0000808 0.0002638 -0.0005911 -0.0000061 0.0001107 -0.0000554 -0.0000775 -0.0002464 -0.0009295 -0.0000925 -0.0001603 0.0002065 -0.0000803 -0.0000351 -0.0002399 -0.0000495 -0.0004690 -0.0001807 -0.0012903 0.0001658 -0.0007682 -0.0002560 -0.0008281 -0.0000754 -0.0006181 -0.0001001 -0.0007842 0.0003165 -0.0006380 0.0003479 -0.0007305 0.0001823 -0.0006453 0.0000223 -0.0007567 -0.0000527 -0.0008904 0.0000954 -0.0005574 0.0002234 -0.0004984 0.0003169 -0.0007082
-0.0000636 -0.0000813 0.0002624 -0.0005672 -0.0000045 0.0001120 -0.0000549 -0.0000716 -0.0002491 -0.0009264 -0.0000891 -0.0001565 0.0002076 -0.0000585 -0.0000399 -0.0002345 -0.0000584 -0.0004702 -0.0001851 -0.0012979 0.0001651 -0.0007604 -0.0002593 -0.0008290 -0.0000769 -0.0006003 -0.0000986 -0.0007795 0.0003183 -0.0006133 0.0003488 -0.0007076 0.0001772 -0.0006123 0.0000235 -0.0007405 -0.0000551 -0.0008799 0.0000974 -0.0005057 0.0002196 -0.0004765 0.0003153 -0.0006768
-0.0000562 -0.0000749 0.0002628 -0.0005407 0.0000017 0.0001136 -0.0000512 -0.0000677 -0.0002514 -0.0009193 -0.0000873 -0.0001601 0.0002106 -0.0000376 -0.0000417 -0.0002256 -0.0000643 -0.0004639 -0.0001886 -0.0013017 0.0001633 -0.0007471 -0.0002609 -0.0008232 -0.0000787 -0.0005753 -0.0000974 -0.0007745 0.0003141 -0.0005869 0.0003480 -0.0006760 0.0001744 -0.0005691 0.0000197 -0.0007097 -0.0000576 -0.0008563 0.0001001 -0.0004557 0.0002042 -0.0004884 0.0003147 -0.0006299
-0.0000531 -0.0000694 0.0002607 -0.0005146 -0.0000088 0.0001266 -0.0000502 -0.0000891 -0.0002668 -0.0009248 -0.0000983 -0.0001719 0.0002073 -0.0000385 -0.0000449 -0.0002396 -0.0000601 -0.0004504 -0.0001887 -0.0013032 0.0001631 -0.0007313 -0.0002542 -0.0008190 -0.0000831 -0.0005518 -0.0000996 -0.0007632 0.0003042 -0.0005837 0.0003455 -0.0006565 0.0001707 -0.0005142 0.0000194 -0.0006836 -0.0000564 -0.0008337 0.0001026 -0.0004103 0.0001890 -0.0005034 0.0003115 -0.0005925
-0.0000505 -0.0000633 0.0002589 -0.0004920 -0.0000135 0.0001294 -0.0000609 -0.0001046 -0.0002765 -0.0009181 -0.0001024 -0.0001824 0.0002097 -0.0000418 -0.0000523 -0.0002372 -0.0000607 -0.0004382 -0.0001870 -0.0012832 0.0001621 -0.0007165 -0.0002522 -0.0008131 -0.0000853 -0.0005226 -0.0000994 -0.0007499 0.0002962 -0.0005748 0.0003436 -0.0006265 0.0001640 -0.0004666 0.0000186 -0.0006528 -0.0000540 -0.0008119 0.0001020 -0.0003622 0.0001772 -0.0004997 0.0003063 -0.0005609
-0.0000428 -0.0000564 0.0002570 -0.0004609 -0.0000219 0.0001442 -0.0000632 -0.0001141 -0.0002806 -0.0008985 -0.0001071 -0.0001893 0.0002024 -0.0000301 -0.0000537 -0.0002264 -0.0000622 -0.0004235 -0.0001832 -0.0012537 0.0001622 -0.0007006 -0.0002520 -0.0007966 -0.0000859 -0.0004911 -0.0000971 -0.0007295 0.0002869 -0.0005586 0.0003413 -0.0005958 0.0001573 -0.0004271 0.0000189 -0.0006232 -0.0000533 -0.0007903 0.0000997 -0.0003278 0.0001675 -0.0004872 0.0002990 -0.0005287
-0.0000406 -0.0000435 0.0002537 -0.0004242 -0.0000263 0.0001549 -0.0000654 -0.0001224 -0.0002844 -0.0008718 -0.0001108 -0.0001934 0.0001945 -0.0000123 -0.0000564 -0.0002196 -0.0000659 -0.0004134 -0.0001773 -0.0012208 0.0001622 -0.0006831 -0.0002471 -0.0007795 -0.0000852 -0.0004584 -0.0000918 -0.0007021 0.0002767 -0.0005395 0.0003405 -0.0005642 0.0001499 -0.0003893 0.0000232 -0.0005929 -0.0000513 -0.0007694 0.0000982 -0.0002875 0.0001594 -0.0004743 0.0002915 -0.0004972
-0.0000365 -0.0000384 0.0002532 -0.0003867 -0.0000362 0.0001707 -0.0000635 -0.0001320 -0.0002848 -0.0008437 -0.0001148 -0.0001956 0.0001887 -0.0000009 -0.0000601 -0.0002048 -0.0000681 -0.0003973 -0.0001698 -0.0011786 0.0001613 -0.0006578 -0.0002404 -0.0007553 -0.0000846 -0.0004194 -0.0000865 -0.0006701 0.0002673 -0.0005170 0.0003363 -0.0005202 0.0001436 -0.0003413 0.0000249 -0.0005522 -0.0000499 -0.0007346 0.0000964 -0.0002426 0.0001495 -0.0004452 0.0002843 -0.0004526
-0.0000363 -0.0000173 0.0002508 -0.0003341 -0.0000378 0.0001964 -0.0000647 -0.0001315 -0.0002870 -0.0008022 -0.0001167 -0.0002021 0.0001893 0.0000145 -0.0000659 -0.0001801 -0.0000694 -0.0003771 -0.0001623 -0.0011269 0.0001609 -0.0006126 -0.0002328 -0.0007344 -0.0000842 -0.0003782 -0.0000814 -0.0006382 0.0002554 -0.0004895 0.0003321 -0.0004777 0.0001353 -0.0002950 0.0000251 -0.0005056 -0.0000484 -0.0007024 0.0000953 -0.0001970 0.0001407 -0.0004245 0.0002764 -0.0004136
-0.0000348 0.0000006 0.0002494 -0.0002882 -0.0000451 0.0002196 -0.0000719 -0.0001274 -0.0002871 -0.0007609 -0.0001192 -0.0002020 0.0001822 0.0000280 -0.0000624 -0.0001563 -0.0000687 -0.0003554 -0.0001538 -0.0010749 0.0001609 -0.0005830 -0.0002255 -0.0007093 -0.0000829 -0.0003407 -0.0000757 -0.0006026 0.0002450 -0.0004697 0.0003271 -0.0004430 0.0001270 -0.0002558 0.0000242 -0.0004688 -0.0000463 -0.0006752 0.0000919 -0.0001638 0.0001320 -0.0004039 0.0002682 -0.0003772
-0.0000348 0.0000193 0.0002501 -0.0002460 -0.0000429 0.0002477 -0.0000714 -0.0001275 -0.0002858 -0.0007212 -0.0001200 -0.0002045 0.0001734 0.0000467 -0.0000643 -0.0001344 -0.0000697 -0.0003407 -0.0001458 -0.0010222 0.0001605 -0.0005542 -0.0002217 -0.0006876 -0.0000819 -0.0003082 -0.0000694 -0.0005693 0.0002293 -0.0004438 0.0003234 -0.0004118 0.0001185 -0.0002205 0.0000250 -0.0004368 -0.0000453 -0.0006507 0.0000897 -0.0001271 0.0001237 -0.0003865 0.0002586 -0.0003457
-0.0000313 0.0000328 0.0002479 -0.0002037 -0.0000554 0.0002770 -0.0000805 -0.0001196 -0.0002848 -0.0006816 -0.0001201 -0.0002075 0.0001606 0.0000680 -0.0000640 -0.0001099 -0.0000700 -0.0003254 -0.0001382 -0.0009724 0.0001609 -0.0005300 -0.0002157 -0.0006670 -0.0000803 -0.0002789 -0.0000650 -0.0005412 0.0002169 -0.0004262 0.0003178 -0.0003818 0.0001098 -0.0001909 0.0000264 -0.0004111 -0.0000444 -0.0006315 0.0000839 -0.0001118 0.0001165 -0.0003640 0.0002469 -0.0003167
-0.0000288 0.0000513 0.0002473 -0.0001642 -0.0000591 0.0003030 -0.0000759 -0.0001129 -0.0002816 -0.0006448 -0.0001224 -0.0002045 0.0001600 0.0000798 -0.0000650 -0.0000809 -0.0000701 -0.0003098 -0.0001308 -0.0009250 0.0001613 -0.0005060 -0.0002102 -0.0006477 -0.0000790 -0.0002504 -0.0000612 -0.0005129 0.0002036 -0.0004027 0.0003122 -0.0003487 0.0001003 -0.0001591 0.0000263 -0.0003823 -0.0000443 -0.0006040 0.0000788 -0.0000810 0.0001092 -0.0003348 0.0002355 -0.0002800
-0.0000274 0.0000674 0.0002469 -0.0001127 -0.0000551 0.0003242 -0.0000698 -0.0001128 -0.0002816 -0.0006006 -0.0001227 -0.0002037 0.0001497 0.0001235 -0.0000647 -0.0000512 -0.0000725 -0.0002942 -0.0001239 -0.0008760 0.0001575 -0.0004494 -0.0002041 -0.0006320 -0.0000772 -0.0002181 -0.0000573 -0.0004850 0.0001868 -0.0003641 0.0003044 -0.0003093 0.0000893 -0.0001229 0.0000268 -0.0003559 -0.0000463 -0.0005756 0.0000745 -0.0000566 0.0001015 -0.0003080 0.0002238 -0.0002487
-0.0000204 0.0000814 0.0002452 -0.0000685 -0.0000549 0.0003522 -0.0000656 -0.0001125 -0.0002782 -0.0005634 -0.0001199 -0.0002042 0.0001503 0.0001411 -0.0000655 -0.0000201 -0.0000726 -0.0002797 -0.0001175 -0.0008342 0.0001550 -0.0004162 -0.0001991 -0.0006166 -0.0000765 -0.0001936 -0.0000542 -0.0004623 0.0001728 -0.0003408 0.0002968 -0.0002796 0.0000778 -0.0000948 0.0000266 -0.0003376 -0.0000480 -0.0005542 0.0000682 -0.0000424 0.0000948 -0.0002857 0.0002115 -0.0002187
-0.0000213 0.0000978 0.0002454 -0.0000294 -0.0000513 0.0003762 -0.0000740 -0.0000980 -0.0002759 -0.0005281 -0.0001160 -0.0002014 0.0001481 0.0001638 -0.0000693 0.0000093 -0.0000741 -0.0002717 -0.0001120 -0.0007973 0.0001525 -0.0003861 -0.0001933 -0.0006029 -0.0000751 -0.0001747 -0.0000495 -0.0004381 0.0001561 -0.0003157 0.0002910 -0.0002547 0.0000663 -0.0000703 0.0000291 -0.0003278 -0.0000496 -0.0005374 0.0000616 -0.0000310 0.0000872 -0.0002653 0.0001988 -0.0001948
-0.0000215 0.0001108 0.0002410 0.0000083 -0.0000466 0.0003998 -0.0000735 -0.0000936 -0.0002715 -0.0004981 -0.0001160 -0.0001961 0.0001547 0.0001694 -0.0000749 0.0000348 -0.0000759 -0.0002671 -0.0001061 -0.0007658 0.0001493 -0.0003603 -0.0001902 -0.0005948 -0.0000754 -0.0001592 -0.0000465 -0.0004202 0.0001394 -0.0002964 0.0002836 -0.0002318 0.0000542 -0.0000487 0.0000300 -0.0003171 -0.0000530 -0.0005192 0.0000545 -0.0000213 0.0000801 -0.0002482 0.0001858 -0.0001727
-0.0000254 0.0001252 0.0002399 0.0000420 -0.0000408 0.0004073 -0.0000707 -0.0000892 -0.0002677 -0.0004672 -0.0001188 -0.0001938 0.0001469 0.0001928 -0.0000741 0.0000589 -0.0000742 -0.0002599 -0.0001004 -0.0007322 0.0001456 -0.0003338 -0.0001810 -0.0005681 -0.0000730 -0.0001450 -0.0000404 -0.0003925 0.0001225 -0.0002758 0.0002757 -0.0002120 0.0000418 -0.0000277 0.0000301 -0.0003071 -0.0000571 -0.0005025 0.0000460 -0.0000248 0.0000719 -0.0002352 0.0001729 -0.0001539
-0.0000246 0.0001378 0.0002383 0.0000713 -0.0000484 0.0004387 -0.0000787 -0.0000669 -0.0002622 -0.0004360 -0.0001182 -0.0002051 0.0001423 0.0002191 -0.0000732 0.0000860 -0.0000733 -0.0002498 -0.0000939 -0.0006936 0.0001397 -0.0002928 -0.0001728 -0.0005437 -0.0000710 -0.0001243 -0.0000345 -0.0003621 0.0001062 -0.0002479 0.0002659 -0.0001824 0.0000301 0.0000009 0.0000306 -0.0002914 -0.0000606 -0.0004789 0.0000394 -0.0000088 0.0000629 -0.0002196 0.0001599 -0.0001315
-0.0000222 0.0001537 0.0002372 0.0000986 -0.0000504 0.0004694 -0.0000728 -0.0000550 -0.0002580 -0.0004040 -0.0001177 -0.0002106 0.0001412 0.0002318 -0.0000747 0.0001135 -0.0000728 -0.0002456 -0.0000879 -0.0006642 0.0001338 -0.0002615 -0.0001653 -0.0005223 -0.0000691 -0.0001121 -0.0000283 -0.0003385 0.0000919 -0.0002245 0.0002578 -0.0001640 0.0000172 0.0000210 0.0000306 -0.0002827 -0.0000635 -0.0004589 0.0000342 0.0000110 0.0000574 -0.0002046 0.0001470 -0.0001121
-0.0000206 0.0001638 0.0002344 0.0001242 -0.0000487 0.0004973 -0.0000646 -0.0000387 -0.0002523 -0.0003810 -0.0001059 -0.0002029 0.0001347 0.0002530 -0.0000747 0.0001341 -0.0000791 -0.0002551 -0.0000838 -0.0006547 0.0001271 -0.0002310 -0.0001693 -0.0005174 -0.0000697 -0.0001038 -0.0000201 -0.0003201 0.0000750 -0.0001923 0.0002479 -0.0001434 0.0000031 0.0000328 0.0000280 -0.0002804 -0.0000672 -0.0004352 0.0000310 0.0000379 0.0000526 -0.0001867 0.0001338 -0.0000926
-0.0000342 0.0001573 0.0002301 0.0001444 -0.0000270 0.0005719 -0.0000581 -0.0000446 -0.0002543 -0.0003790 -0.0000995 -0.0001905 0.0001422 0.0002737 -0.0000963 0.0001060 -0.0000934 -0.0002813 -0.0000842 -0.0006924 0.0001296 -0.0001799 -0.0001928 -0.0005993 -0.0000760 -0.0001076 -0.0000224 -0.0003305 0.0000621 -0.0001585 0.0002365 -0.0001218 -0.0000149 0.0000222 0.0000255 -0.0002735 -0.0000674 -0.0004023 0.0000341 0.0000855 0.0000502 -0.0001688 0.0001204 -0.0000759
-0.0000777 0.0001065 0.0002235 0.0001374 0.0000741 0.0008092 -0.0001185 -0.0001221 -0.0002615 -0.0003712 -0.0000764 0.0003191 0.0001387 0.0002811 -0.0001743 -0.0000795 -0.0001180 -0.0003179 -0.0000897 -0.0007659 0.0001455 -0.0001086 -0.0002685 -0.0008155 -0.0000989 -0.0001430 -0.0000417 -0.0004199 0.0000493 -0.0001302 0.0002233 -0.0001049 -0.0000373 -0.0000112 0.0000160 -0.0002812 -0.0000657 -0.0003776 0.0000409 0.0001371 0.0000515 -0.0001419 0.0001057 -0.0000616
-0.0001108 0.0000910 0.0002101 0.0001044 0.0002107 0.0011051 -0.0002195 -0.0002668 -0.0002696 -0.0003936 -0.0002390 0.0007343 0.0001260 0.0002759 -0.0002914 -0.0003880 -0.0001600 -0.0003953 -0.0000959 -0.0008666 0.0001652 -0.0000424 -0.0003738 -0.0011022 -0.0001275 -0.0001965 -0.0000666 -0.0005446 0.0000387 -0.0001094 0.0002140 -0.0000831 -0.0000651 -0.0000567 0.0000063 -0.0003014 -0.0000660 -0.0003729 0.0000513 0.0002003 0.0000538 -0.0001140 0.0000919 -0.0000560
-0.0001563 0.0000888 0.0001927 0.0000511 0.0004100 0.0014552 -0.0003013 -0.0005404 -0.0002768 -0.0004310 -0.0005274 0.0000159 0.0000959 0.0002435 -0.0004223 -0.0007339 -0.0002078 -0.0004929 -0.0001070 -0.0009986 0.0001862 0.0000108 -0.0004493 -0.0013729 -0.0001558 -0.0002459 -0.0001157 -0.0007794 0.0000244 -0.0001050 0.0002033 -0.0000581 -0.0000944 -0.0001158 -0.0000092 -0.0003312 -0.0000735 -0.0003815 0.0000629 0.0002463 0.0000823 -0.0000064 0.0000765 -0.0000584
-0.0002182 0.0001664 0.0001754 -0.0000205 0.0006581 0.0018495 -0.0003850 -0.0007705 -0.0002821 -0.0004810 -0.0008516 -0.0008321 0.0000232 0.0001849 -0.0005582 -0.0010757 -0.0002424 -0.0005614 -0.0001223 -0.0011480 0.0002071 0.0000553 -0.0005225 -0.0018917 -0.0002284 -0.0002916 -0.0002343 -0.0014033 -0.0000091 -0.0001718 0.0001886 -0.0000407 -0.0001251 -0.0001821 -0.0000280 -0.0003854 -0.0000911 -0.0004110 0.0000740 0.0002626 0.0001438 0.0002143 0.0000544 -0.0000798
-0.0002948 0.0003728 0.0001543 -0.0001163 0.0009173 0.0022372 -0.0002989 -0.0006047 -0.0003060 -0.0005501 -0.0011901 -0.0017270 -0.0000651 0.0000425 -0.0006954 -0.0014001 -0.0002509 -0.0005831 -0.0001420 -0.0013019 0.0002290 0.0000870 -0.0006901 -0.0026658 -0.0003616 -0.0004108 -0.0003776 -0.0022053 -0.0000545 -0.0002922 0.0001738 -0.0000306 -0.0001561 -0.0002474 -0.0000418 -0.0004162 -0.0001200 -0.0004602 0.0000773 0.0002356 0.0002181 0.0004856 0.0000302 -0.0001080
-0.0003814 0.0006601 0.0001286 -0.0002374 0.0011509 0.0025750 -0.0002903 -0.0004445 -0.0003583 -0.0006951 -0.0015550 -0.0026785 -0.0001693 -0.0001260 -0.0008328 -0.0017297 -0.0002522 -0.0005991 -0.0001637 -0.0014696 0.0002501 0.0001077 -0.0008473 -0.0034579 -0.0004993 -0.0005293 -0.0005278 -0.0030506 -0.0001004 -0.0004169 0.0001572 -0.0000255 -0.0001868 -0.0003143 -0.0000479 -0.0004190 -0.0001512 -0.0005189 0.0000787 0.0001995 0.0002890 0.0007526 0.0000064 -0.0001343
-0.0004685 0.0009113 0.0001001 -0.0003746 0.0013885 0.0028950 -0.0002434 -0.0001861 -0.0004259 -0.0008811 -0.0019460 -0.0036763 -0.0002694 -0.0003063 -0.0009732 -0.0020799 -0.0002546 -0.0006235 -0.0001878 -0.0016595 0.0002686 0.0001078 -0.0010027 -0.0042883 -0.0006454 -0.0006514 -0.0006813 -0.0039494 -0.0001500 -0.0005509 0.0001410 -0.0000334 -0.0002188 -0.0003904 -0.0000496 -0.0004046 -0.0001861 -0.0005975 0.0000781 0.0001466 0.0003636 0.0010144 -0.0000194 -0.0001719
-0.0005605 0.0011912 0.0000755 -0.0005270 0.0016007 0.0031990 -0.0001998 0.0000822 -0.0005065 -0.0011134 -0.0023644 -0.0047311 -0.0003882 -0.0004881 -0.0011223 -0.0024448 -0.0002385 -0.0006134 -0.0002141 -0.0018699 0.0002855 0.0000941 -0.0011742 -0.0051909 -0.0008006 -0.0007712 -0.0008419 -0.0049189 -0.0002045 -0.0006944 0.0001229 -0.0000479 -0.0002485 -0.0004642 -0.0000475 -0.0003767 -0.0002279 -0.0006747 0.0000726 0.0000708 0.0004387 0.0012937 -0.0000457 -0.0002015
-0.0006566 0.0014851 0.0000476 -0.0006743 0.0018061 0.0034760 -0.0001487 0.0003495 -0.0005977 -0.0013614 -0.0028158 -0.0058462 -0.0005034 -0.0006680 -0.0012815 -0.0028331 -0.0002211 -0.0005996 -0.0002427 -0.0020958 0.0003007 0.0000952 -0.0013489 -0.0061433 -0.0009591 -0.0008872 -0.0010061 -0.0059405 -0.0002582 -0.0008313 0.0001052 -0.0000608 -0.0002796 -0.0005322 -0.0000459 -0.0003374 -0.0002693 -0.0007542 0.0000675 0.0000073 0.0005130 0.0015673 -0.0000721 -0.0002269
-0.0007589 0.0017597 0.0000178 -0.0008333 0.0020024 0.0037442 -0.0001024 0.0006166 -0.0006938 -0.0016203 -0.0033046 -0.0070265 -0.0006237 -0.0008465 -0.0014432 -0.0032379 -0.0002042 -0.0005891 -0.0002734 -0.0023360 0.0003151 0.0000880 -0.0015226 -0.0071246 -0.0011205 -0.0010007 -0.0011722 -0.0070118 -0.0003111 -0.0009724 0.0000859 -0.0000796 -0.0003120 -0.0005996 -0.0000457 -0.0002979 -0.0003132 -0.0008338 0.0000611 -0.0000633 0.0005838 0.0018395 -0.0000973 -0.0002486
-0.0008561 0.0020068 -0.0000128 -0.0010061 0.0022064 0.0040113 -0.0000458 0.0008936 -0.0007919 -0.0018845 -0.0038349 -0.0082752 -0.0007438 -0.0010345 -0.0016129 -0.0036734 -0.0001962 -0.0005987 -0.0003047 -0.0025963 0.0003293 0.0000692 -0.0016961 -0.0081314 -0.0012838 -0.0011152 -0.0013391 -0.0081282 -0.0003664 -0.0011084 0.0000662 -0.0001006 -0.0003454 -0.0006672 -0.0000479 -0.0002562 -0.0003565 -0.0009190 0.0000570 -0.0001138 0.0006529 0.0021027 -0.0001216 -0.0002691
-0.0009631 0.0022455 -0.0000440 -0.0011895 0.0024002 0.0042734 0.0000133 0.0011615 -0.0008953 -0.0021626 -0.0044143 -0.0096164 -0.0008732 -0.0012244 -0.0017866 -0.0041325 -0.0001910 -0.0006176 -0.0003383 -0.0028731 0.0003441 0.0000326 -0.0018730 -0.0091892 -0.0014499 -0.0012395 -0.0015101 -0.0093164 -0.0004203 -0.0012613 0.0000470 -0.0001409 -0.0003787 -0.0007513 -0.0000500 -0.0002246 -0.0004027 -0.0010249 0.0000506 -0.0001939 0.0007229 0.0023499 -0.0001464 -0.0003040
-0.0010615 0.0024740 -0.0000767 -0.0013960 0.0025858 0.0045213 0.0000571 0.0014415 -0.0010000 -0.0024588 -0.0050558 -0.0110548 -0.0009961 -0.0014432 -0.0019705 -0.0046123 -0.0001899 -0.0006539 -0.0003738 -0.0031733 0.0003592 -0.0000340 -0.0020551 -0.0102951 -0.0016183 -0.0013712 -0.0016839 -0.0105702 -0.0004740 -0.0014222 0.0000265 -0.0001766 -0.0004117 -0.0008359 -0.0000522 -0.0002064 -0.0004454 -0.0011254 0.0000472 -0.0002411 0.0007910 0.0026038 -0.0001702 -0.0003266
-0.0011660 0.0026866 -0.0001114 -0.0016013 0.0027712 0.0047587 0.0001103 0.0017209 -0.0011085 -0.0027576 -0.0057729 -0.0126084 -0.0011222 -0.0016407 -0.0021602 -0.0051162 -0.0001987 -0.0007060 -0.0004109 -0.0034848 0.0003721 -0.0000846 -0.0022413 -0.0114717 -0.0017910 -0.0015007 -0.0018589 -0.0118997 -0.0005302 -0.0015685 0.0000061 -0.0002098 -0.0004444 -0.0009154 -0.0000582 -0.0001812 -0.0004900 -0.0012295 0.0000447 -0.0002815 0.0008579 0.0028551 -0.0001937 -0.0003518
-0.0012700 0.0028933 -0.0001503 -0.0018123 0.0029419 0.0049997 0.0001708 0.0019936 -0.0012175 -0.0030652 -0.0065790 -0.0142953 -0.0012499 -0.0018481 -0.0023497 -0.0056487 -0.0002143 -0.0007736 -0.0004504 -0.0038127 0.0003849 -0.0001433 -0.0024335 -0.0127253 -0.0019681 -0.0016370 -0.0020375 -0.0133193 -0.0005847 -0.0017199 -0.0000143 -0.0002444 -0.0004799 -0.0009985 -0.0000707 -0.0001844 -0.0005361 -0.0013379 0.0000416 -0.0003185 0.0009258 0.0031085 -0.0002175 -0.0003716
-0.0013785 0.0031097 -0.0001879 -0.0020325 0.0030950 0.0052439 0.0002250 0.0022468 -0.0013235 -0.0033707 -0.0074989 -0.0161393 -0.0013861 -0.0020509 -0.0025553 -0.0062016 -0.0002330 -0.0008461 -0.0004929 -0.0041581 0.0003981 -0.0002088 -0.0026320 -0.0140793 -0.0021511 -0.0017910 -0.0022135 -0.0148504 -0.0006380 -0.0018631 -0.0000355 -0.0002813 -0.0005187 -0.0010890 -0.0000903 -0.0002164 -0.0005813 -0.0014607 0.0000401 -0.0003430 0.0009928 0.0033628 -0.0002415 -0.0003915
-0.0014811 0.0032939 -0.0002262 -0.0022588 0.0032498 0.0055018 0.0002663 0.0025054 -0.0014261 -0.0036868 -0.0085480 -0.0181578 -0.0015065 -0.0022851 -0.0027680 -0.0067930 -0.0002602 -0.0009361 -0.0005382 -0.0045388 0.0004126 -0.0003134 -0.0028438 -0.0155818 -0.0023470 -0.0019696 -0.0023920 -0.0165327 -0.0006908 -0.0020225 -0.0000554 -0.0003348 -0.0005599 -0.0012142 -0.0001132 -0.0002693 -0.0006249 -0.0016117 0.0000415 -0.0003668 0.0010615 0.0036013 -0.0002657 -0.0004252
-0.0015895 0.0034498 -0.0002650 -0.0025029 0.0034119 0.0057440 0.0003342 0.0027517 -0.0015365 -0.0040407 -0.0097839 -0.0203574 -0.0016372 -0.0025370 -0.0029921 -0.0074225 -0.0002913 -0.0010414 -0.0005847 -0.0049507 0.0004264 -0.0004623 -0.0030646 -0.0172556 -0.0025542 -0.0021553 -0.0025653 -0.0184099 -0.0007466 -0.0021959 -0.0000732 -0.0003976 -0.0005975 -0.0013454 -0.0001296 -0.0003073 -0.0006767 -0.0017792 0.0000356 -0.0004314 0.0011324 0.0038514 -0.0002909 -0.0004603
-0.0016951 0.0036832 -0.0002994 -0.0027390 0.0035639 0.0059632 0.0003711 0.0029644 -0.0016645 -0.0044228 -0.0112892 -0.0228241 -0.0017672 -0.0027827 -0.0032230 -0.0080455 -0.0002962 -0.0010876 -0.0006332 -0.0053444 0.0004427 -0.0005744 -0.0032854 -0.0190992 -0.0027681 -0.0023212 -0.0027370 -0.0204751 -0.0008019 -0.0023569 -0.0000933 -0.0004586 -0.0006324 -0.0014629 -0.0001452 -0.0003244 -0.0007302 -0.0019408 0.0000272 -0.0005131 0.0011997 0.0040920 -0.0003166 -0.0004946
-0.0017935 0.0039357 -0.0003329 -0.0029830 0.0037193 0.0061627 0.0004193 0.0031646 -0.0018018 -0.0048254 -0.0132699 -0.0256164 -0.0019044 -0.0030376 -0.0034551 -0.0086791 -0.0002869 -0.0011057 -0.0006795 -0.0057237 0.0004596 -0.0006835 -0.0034837 -0.0210531 -0.0029844 -0.0024781 -0.0029043 -0.0227468 -0.0008553 -0.0025296 -0.0001120 -0.0005256 -0.0006638 -0.0015730 -0.0001552 -0.0003320 -0.0007842 -0.0021101 0.0000152 -0.0006121 0.0012651 0.0043298 -0.0003413 -0.0005265
-0.0018730 0.0041995 -0.0003666 -0.0032319 0.0038544 0.0063245 0.0004732 0.0033802 -0.0019355 -0.0052136 -0.0159042 -0.0287845 -0.0020617 -0.0033042 -0.0036622 -0.0092620 -0.0002718 -0.0011164 -0.0007217 -0.0060553 0.0004668 -0.0008161 -0.0036424 -0.0229572 -0.0031971 -0.0026283 -0.0030370 -0.0252104 -0.0009114 -0.0027087 -0.0001283 -0.0006011 -0.0006918 -0.0016577 -0.0001652 -0.0003448 -0.0008449 -0.0022960 -0.0000021 -0.0007397 0.0013302 0.0045586 -0.0003645 -0.0005597
-0.0019154 0.0044996 -0.0003984 -0.0034669 0.0039452 0.0063404 0.0005793 0.0036661 -0.0020662 -0.0056250 -0.0209630 -0.0352427 -0.0021992 -0.0035865 -0.0037574 -0.0095924 -0.0002424 -0.0011192 -0.0007604 -0.0063530 0.0004635 -0.0010018 -0.0036861 -0.0245440 -0.0033873 -0.0027564 -0.0031210 -0.0276713 -0.0009702 -0.0029043 -0.0001429 -0.0006920 -0.0007136 -0.0017406 -0.0001695 -0.0003625 -0.0009074 -0.0024960 -0.0000265 -0.0009147 0.0013926 0.0047662 -0.0003863 -0.0006035
-0.0019719 0.0047585 -0.0004247 -0.0036889 0.0040071 0.0062990 0.0007226 0.0040043 -0.0022004 -0.0060175 -0.0273379 -0.0440411 -0.0023315 -0.0038613 -0.0037887 -0.0097434 -0.0001984 -0.0010920 -0.0007983 -0.0066290 0.0004571 -0.0012097 -0.0036604 -0.0260302 -0.0035736 -0.0028724 -0.0031643 -0.0302793 -0.0010267 -0.0031084 -0.0001584 -0.0008028 -0.0007291 -0.0018155 -0.0001722 -0.0003779 -0.0009665 -0.0026842 -0.0000524 -0.0010848 0.0014534 0.0049678 -0.0004070 -0.0006409
-0.0020186 0.0050051 -0.0004488 -0.0038848 0.0040292 0.0061986 0.0008461 0.0044458 -0.0023402 -0.0064031 -0.0283850 -0.0447403 -0.0024334 -0.0040924 -0.0037989 -0.0098294 -0.0001480 -0.0010376 -0.0008322 -0.0068692 0.0004463 -0.0013884 -0.0037064 -0.0277235 -0.0037646 -0.0029892 -0.0031558 -0.0327253 -0.0010798 -0.0032791 -0.0001724 -0.0009076 -0.0007398 -0.0018657 -0.0001739 -0.0003788 -0.0010179 -0.0028486 -0.0000795 -0.0012308 0.0014922 0.0051085 -0.0004231 -0.0006607
-0.0020513 0.0051652 -0.0004720 -0.0040628 0.0040112 0.0060511 0.0009658 0.0048378 -0.0024858 -0.0067833 -0.0283904 -0.0447125 -0.0024837 -0.0042806 -0.0038047 -0.0099543 -0.0001171 -0.0010247 -0.0008621 -0.0070979 0.0004356 -0.0015539 -0.0038232 -0.0286452 -0.0038917 -0.0031209 -0.0031299 -0.0335154 -0.0011066 -0.0033530 -0.0001798 -0.0010050 -0.0007470 -0.0019068 -0.0001689 -0.0003516 -0.0010579 -0.0029856 -0.0001064 -0.0013437 0.0015034 0.0051546 -0.0004308 -0.0006575
-0.0020821 0.0052096 -0.0004914 -0.0042143 0.0039763 0.0058923 0.0009357 0.0048859 -0.0026108 -0.0071488 -0.0284396 -0.0446405 -0.0024916 -0.0043798 -0.0038217 -0.0101183 -0.0001132 -0.0010621 -0.0008886 -0.0073217 0.0004240 -0.0016999 -0.0037740 -0.0287090 -0.0039212 -0.0031658 -0.0031198 -0.0336313 -0.0011149 -0.0033600 -0.0001875 -0.0010971 -0.0007538 -0.0019494 -0.0001685 -0.0003477 -0.0010830 -0.0031027 -0.0001258 -0.0014155 0.0015039 0.0051470 -0.0004358 -0.0006581
-0.0020939 0.0051606 -0.0005041 -0.0043518 0.0039563 0.0057610 0.0009631 0.0049319 -0.0026958 -0.0074170 -0.0283989 -0.0445103 -0.0024879 -0.0044621 -0.0038372 -0.0102933 -0.0001129 -0.0011037 -0.0009131 -0.0075310 0.0004176 -0.0018607 -0.0037619 -0.0288542 -0.0039485 -0.0032268 -0.0031059 -0.0337533 -0.0011221 -0.0033868 -0.0001931 -0.0012042 -0.0007581 -0.0020146 -0.0001759 -0.0003904 -0.0011094 -0.0032252 -0.0001498 -0.0015236 0.0015073 0.0051350 -0.0004402 -0.0006767
-0.0021044 0.0051512 -0.0005167 -0.0044821 0.0039165 0.0056516 0.0009570 0.0048936 -0.0027596 -0.0076391 -0.0283558 -0.0444750 -0.0024838 -0.0045475 -0.0038570 -0.0104550 -0.0001077 -0.0011351 -0.0009357 -0.0077216 0.0004145 -0.0020105 -0.0037666 -0.0290119 -0.0039666 -0.0032937 -0.0030986 -0.0338345 -0.0011221 -0.0034162 -0.0001958 -0.0013067 -0.0007605 -0.0020777 -0.0001892 -0.0004571 -0.0011292 -0.0033366 -0.0001733 -0.0016226 0.0015081 0.0051202 -0.0004418 -0.0006881
-0.0021084 0.0051051 -0.0005319 -0.0046048 0.0038895 0.0055471 0.0009552 0.0048384 -0.0028036 -0.0078097 -0.0283105 -0.0444516 -0.0024687 -0.0046165 -0.0038649 -0.0106092 -0.0001216 -0.0011997 -0.0009577 -0.0078883 0.0004118 -0.0021335 -0.0037567 -0.0290368 -0.0039755 -0.0033590 -0.0030938 -0.0337946 -0.0011191 -0.0034200 -0.0001951 -0.0013927 -0.0007617 -0.0021326 -0.0002087 -0.0005344 -0.0011417 -0.0034357 -0.0001909 -0.0016900 0.0015072 0.0050950 -0.0004417 -0.0007004
