-0.0000000 -0.0000000 -0.0000000 -0.0000000 -0.0000000 -0.0000000 -0.0000000 -0.0000000 -0.0000000 -0.0000000 -0.0000000 -0.0000000 -0.0000000 -0.0000000 -0.0000000 -0.0000000 -0.0000000 -0.0000000 -0.0000000 -0.0000000 -0.0000000 -0.0000000 -0.0000000 -0.0000000 -0.0000000 -0.0000000 -0.0000000 -0.0000000 -0.0000000 -0.0000000 -0.0000000 -0.0000000 -0.0000000 -0.0000000 -0.0000000 -0.0000000 -0.0000000 -0.0000000 -0.0000000 -0.0000000 -0.0000000 -0.0000000 -0.0000000 -0.0000000
-0.0000000 -0.0000000 -0.0000000 -0.0000000 -0.0000000 -0.0000000 -0.0000000 -0.0000000 -0.0000000 -0.0000000 -0.0000000 -0.0000000 -0.0000000 -0.0000000 -0.0000000 -0.0000000 -0.0000000 -0.0000000 -0.0000000 -0.0000000 -0.0000000 -0.0000000 -0.0000000 -0.0000000 -0.0000000 -0.0000000 -0.0000000 -0.0000000 -0.0000000 -0.0000000 -0.0000000 -0.0000000 -0.0000000 -0.0000000 -0.0000000 -0.0000000 -0.0000000 -0.0000000 -0.0000000 -0.0000000 -0.0000000 -0.0000000 -0.0000000 -0.0000000
-0.0000000 -0.0000000 -0.0000000 -0.0000000 -0.0000000 -0.0000000 -0.0000000 -0.0000000 -0.0000000 -0.0000000 -0.0000000 -0.0000000 -0.0000000 -0.0000000 -0.0000000 -0.0000000 -0.0000000 -0.0000000 -0.0000000 -0.0000000 -0.0000000 -0.0000000 -0.0000000 -0.0000000 -0.0000000 -0.0000000 -0.0000000 -0.0000000 -0.0000000 -0.0000000 -0.0000000 -0.0000000 -0.0000000 -0.0000000 -0.0000000 -0.0000000 -0.0000000 -0.0000000 -0.0000000 -0.0000000 -0.0000000 -0.0000000 -0.0000000 -0.0000000
-0.0000000 -0.0000000 -0.0000000 -0.0000000 -0.0000000 -0.0000000 -0.0000000 -0.0000000 -0.0000000 -0.0000000 -0.0000000 -0.0000000 -0.0000000 -0.0000000 -0.0000000 -0.0000000 -0.0000000 -0.0000000 -0.0000000 -0.0000000 -0.0000000 -0.0000000 -0.0000000 -0.0000000 -0.0000000 -0.0000000 -0.0000000 -0.0000000 -0.0000000 -0.0000000 -0.0000000 -0.0000000 -0.0000000 -0.0000000 -0.0000000 -0.0000000 -0.0000000 -0.0000000 -0.0000000 -0.0000000 -0.0000000 -0.0000000 -0.0000000 -0.0000000
-0.0000000 -0.0000000 -0.0000000 -0.0000000 -0.0000000 -0.0000000 -0.0000000 -0.0000000 -0.0000000 -0.0000000 -0.0000000 -0.0000000 -0.0000000 -0.0000000 -0.0000000 -0.0000000 -0.0000000 -0.0000000 -0.0000000 -0.0000000 -0.0000000 -0.0000000 -0.0000000 -0.0000000 -0.0000000 -0.0000000 -0.0000000 -0.0000000 -0.0000000 -0.0000000 -0.0000000 -0.0000000 -0.0000000 -0.0000000 -0.0000000 -0.0000000 -0.0000000 -0.0000000 -0.0000000 -0.0000000 -0.0000000 -0.0000000 -0.0000000 -0.0000000
-0.0000000 -0.0000000 -0.0000000 -0.0000000 -0.0000000 -0.0000000 -0.0000000 -0.0000000 -0.0000000 -0.0000000 -0.0000000 -0.0000000 -0.0000000 -0.0000000 -0.0000000 -0.0000000 -0.0000000 -0.0000000 -0.0000000 -0.0000000 -0.0000000 -0.0000000 -0.0000000 -0.0000000 -0.0000000 -0.0000000 -0.0000000 -0.0000000 -0.0000000 -0.0000000 -0.0000000 -0.0000000 -0.0000000 -0.0000000 -0.0000000 -0.0000000 -0.0000000 -0.0000000 -0.0000000 -0.0000000 -0.0000000 -0.0000000 -0.0000000 -0.0000000
-0.0000000 -0.0000000 -0.0000000 -0.0000000 -0.0000000 -0.0000000 -0.0000000 -0.0000000 -0.0000000 -0.0000000 -0.0000000 -0.0000000 -0.0000000 -0.0000000 -0.0000000 -0.0000000 -0.0000000 -0.0000000 -0.0000000 -0.0000000 -0.0000000 -0.0000000 -0.0000000 -0.0000000 -0.0000000 -0.0000000 -0.0000000 -0.0000000 -0.0000000 -0.0000000 -0.0000000 -0.0000000 -0.0000000 -0.0000000 -0.0000000 -0.0000000 -0.0000000 -0.0000000 -0.0000000 -0.0000000 -0.0000000 -0.0000000 -0.0000000 -0.0000000
-0.0000000 -0.0000000 -0.0000000 -0.0000000 -0.0000000 -0.0000000 -0.0000000 -0.0000000 -0.0000000 -0.0000000 -0.0000000 -0.0000000 -0.0000000 -0.0000000 -0.0000000 -0.0000000 -0.0000000 -0.0000000 -0.0000000 -0.0000000 -0.0000000 -0.0000000 -0.0000000 -0.0000000 -0.0000000 -0.0000000 -0.0000000 -0.0000000 -0.0000000 -0.0000000 -0.0000000 -0.0000000 -0.0000000 -0.0000000 -0.0000000 -0.0000000 -0.0000000 -0.0000000 -0.0000000 -0.0000000 -0.0000000 -0.0000000 -0.0000000 -0.0000000
-0.0000000 -0.0000000 -0.0000000 -0.0000000 -0.0000000 -0.0000000 -0.0000000 -0.0000000 -0.0000000 -0.0000000 -0.0000000 -0.0000000 -0.0000000 -0.0000000 -0.0000000 -0.0000000 -0.0000000 -0.0000000 -0.0000000 -0.0000000 -0.0000000 -0.0000000 -0.0000000 -0.0000000 -0.0000000 -0.0000000 -0.0000000 -0.0000000 -0.0000000 -0.0000000 -0.0000000 -0.0000000 -0.0000000 -0.0000000 -0.0000000 -0.0000000 -0.0000000 -0.0000000 -0.0000000 -0.0000000 -0.0000000 -0.0000000 -0.0000000 -0.0000000
-0.0000000 -0.0000000 -0.0000000 -0.0000000 -0.0000000 -0.0000000 -0.0000000 -0.0000000 -0.0000000 -0.0000000 -0.0000000 -0.0000000 -0.0000000 -0.0000000 -0.0000000 -0.0000000 -0.0000000 -0.0000000 -0.0000000 -0.0000000 -0.0000000 -0.0000000 -0.0000000 -0.0000000 -0.0000000 -0.0000000 -0.0000000 -0.0000000 -0.0000000 -0.0000000 -0.0000000 -0.0000000 -0.0000000 -0.0000000 -0.0000000 -0.0000000 -0.0000000 -0.0000000 -0.0000000 -0.0000000 -0.0000000 -0.0000000 -0.0000000 -0.0000000
-0.0000000 -0.0000000 -0.0000000 -0.0000000 -0.0000000 -0.0000000 -0.0000000 -0.0000000 -0.0000000 -0.0000000 -0.0000000 -0.0000000 -0.0000000 -0.0000000 -0.0000000 -0.0000000 -0.0000000 -0.0000000 -0.0000000 -0.0000000 -0.0000000 -0.0000000 -0.0000000 -0.0000000 -0.0000000 -0.0000000 -0.0000000 -0.0000000 -0.0000000 -0.0000000 -0.0000000 -0.0000000 -0.0000000 -0.0000000 -0.0000000 -0.0000000 -0.0000000 -0.0000000 -0.0000000 -0.0000000 -0.0000000 -0.0000000 -0.0000000 -0.0000000
-0.0000000 -0.0000000 -0.0000000 -0.0000000 -0.0000000 -0.0000000 -0.0000000 -0.0000000 -0.0000000 -0.0000000 -0.0000000 -0.0000000 -0.0000000 -0.0000000 -0.0000000 -0.0000000 -0.0000000 -0.0000000 -0.0000000 -0.0000000 -0.0000000 -0.0000000 -0.0000000 -0.0000000 -0.0000000 -0.0000000 -0.0000000 -0.0000000 -0.0000000 -0.0000000 -0.0000000 -0.0000000 -0.0000000 -0.0000000 -0.0000000 -0.0000000 -0.0000000 -0.0000000 -0.0000000 -0.0000000 -0.0000000 -0.0000000 -0.0000000 -0.0000000
-0.0000000 -0.0000000 -0.0000000 -0.0000000 -0.0000000 -0.0000000 -0.0000000 -0.0000000 -0.0000000 -0.0000000 -0.0000000 -0.0000000 -0.0000000 -0.0000000 -0.0000000 -0.0000000 -0.0000000 -0.0000000 -0.0000000 -0.0000000 -0.0000000 -0.0000000 -0.0000000 -0.0000000 -0.0000000 -0.0000000 -0.0000000 -0.0000000 -0.0000000 -0.0000000 -0.0000000 -0.0000000 -0.0000000 -0.0000000 -0.0000000 -0.0000000 -0.0000000 -0.0000000 -0.0000000 -0.0000000 -0.0000000 -0.0000000 -0.0000000 -0.0000000
-0.0000000 -0.0000000 -0.0000000 -0.0000000 -0.0000000 -0.0000000 -0.0000000 -0.0000000 -0.0000000 -0.0000000 -0.0000000 -0.0000000 -0.0000000 -0.0000000 -0.0000000 -0.0000000 -0.0000000 -0.0000000 -0.0000000 -0.0000000 -0.0000000 -0.0000000 -0.0000000 -0.0000000 -0.0000000 -0.0000000 -0.0000000 -0.0000000 -0.0000000 -0.0000000 -0.0000000 -0.0000000 -0.0000000 -0.0000000 -0.0000000 -0.0000000 -0.0000000 -0.0000000 -0.0000000 -0.0000000 -0.0000000 -0.0000000 -0.0000000 -0.0000000
-0.0000000 -0.0000000 -0.0000000 -0.0000000 -0.0000000 -0.0000000 -0.0000000 -0.0000000 -0.0000000 -0.0000000 -0.0000000 -0.0000000 -0.0000000 -0.0000000 -0.0000000 -0.0000000 -0.0000000 -0.0000000 -0.0000000 -0.0000000 -0.0000000 -0.0000000 -0.0000000 -0.0000000 -0.0000000 -0.0000000 -0.0000000 -0.0000000 -0.0000000 -0.0000000 -0.0000000 -0.0000000 -0.0000000 -0.0000000 -0.0000000 -0.0000000 -0.0000000 -0.0000000 -0.0000000 -0.0000000 -0.0000000 -0.0000000 -0.0000000 -0.0000000
-0.0000000 -0.0000000 -0.0000000 -0.0000000 -0.0000000 -0.0000000 -0.0000000 -0.0000000 -0.0000000 -0.0000000 -0.0000000 -0.0000000 -0.0000000 -0.0000000 -0.0000000 -0.0000000 -0.0000000 -0.0000000 -0.0000000 -0.0000000 -0.0000000 -0.0000000 -0.0000000 -0.0000000 -0.0000000 -0.0000000 -0.0000000 -0.0000000 -0.0000000 -0.0000000 -0.0000000 -0.0000000 -0.0000000 -0.0000000 -0.0000000 -0.0000000 -0.0000000 -0.0000000 -0.0000000 -0.0000000 -0.0000000 -0.0000000 -0.0000000 -0.0000000
-0.0000000 -0.0000000 -0.0000000 -0.0000000 -0.0000000 -0.0000000 -0.0000000 -0.0000000 -0.0000000 -0.0000000 -0.0000000 -0.0000000 -0.0000000 -0.0000000 -0.0000000 -0.0000000 -0.0000000 -0.0000000 -0.0000000 -0.0000000 -0.0000000 -0.0000000 -0.0000000 -0.0000000 -0.0000000 -0.0000000 -0.0000000 -0.0000000 -0.0000000 -0.0000000 -0.0000000 -0.0000000 -0.0000000 -0.0000000 -0.0000000 -0.0000000 -0.0000000 -0.0000000 -0.0000000 -0.0000000 -0.0000000 -0.0000000 -0.0000000 -0.0000000
-0.0000000 -0.0000000 -0.0000000 -0.0000000 -0.0000000 -0.0000000 -0.0000000 -0.0000000 -0.0000000 -0.0000000 -0.0000000 -0.0000000 -0.0000000 -0.0000000 -0.0000000 -0.0000000 -0.0000000 -0.0000000 -0.0000000 -0.0000000 -0.0000000 -0.0000000 -0.0000000 -0.0000000 -0.0000000 -0.0000000 -0.0000000 -0.0000000 -0.0000000 -0.0000000 -0.0000000 -0.0000000 -0.0000000 -0.0000000 -0.0000000 -0.0000000 -0.0000000 -0.0000000 -0.0000000 -0.0000000 -0.0000000 -0.0000000 -0.0000000 -0.0000000
-0.0000000 -0.0000000 -0.0000000 -0.0000000 -0.0000000 -0.0000000 -0.0000000 -0.0000000 -0.0000000 -0.0000000 -0.0000000 -0.0000000 -0.0000000 -0.0000000 -0.0000000 -0.0000000 -0.0000000 -0.0000000 -0.0000000 -0.0000000 -0.0000000 -0.0000000 -0.0000000 -0.0000000 -0.0000000 -0.0000000 -0.0000000 -0.0000000 -0.0000000 -0.0000000 -0.0000000 -0.0000000 -0.0000000 -0.0000000 -0.0000000 -0.0000000 -0.0000000 -0.0000000 -0.0000000 -0.0000000 -0.0000000 -0.0000000 -0.0000000 -0.0000000
-0.0000000 -0.0000000 -0.0000000 -0.0000000 -0.0000000 -0.0000000 -0.0000000 -0.0000000 -0.0000000 -0.0000000 -0.0000000 -0.0000000 -0.0000000 -0.0000000 -0.0000000 -0.0000000 -0.0000000 -0.0000000 -0.0000000 -0.0000000 -0.0000000 -0.0000000 -0.0000000 -0.0000000 -0.0000000 -0.0000000 -0.0000000 -0.0000000 -0.0000000 -0.0000000 -0.0000000 -0.0000000 -0.0000000 -0.0000000 -0.0000000 -0.0000000 -0.0000000 -0.0000000 -0.0000000 -0.0000000 -0.0000000 -0.0000000 -0.0000000 -0.0000000
0.0000039 -0.0000090 -0.0000124 -0.0000063 0.0000008 0.0000052 -0.0000063 -0.0000080 0.0000004 -0.0000034 0.0000143 -0.0000158 -0.0000081 0.0000102 0.0000006 -0.0000003 -0.0000031 -0.0000000 -0.0000020 -0.0000005 -0.0000027 0.0000004 -0.0000117 -0.0000104 -0.0000016 -0.0000039 -0.0000015 -0.0000111 -0.0000031 -0.0000060 -0.0000031 0.0000036 -0.0000014 0.0000025 -0.0000027 -0.0000087 -0.0000012 -0.0000118 -0.0000030 -0.0000090 0.0000137 -0.0000309 0.0000083 -0.0000125
0.0000015 -0.0000114 -0.0000368 0.0000011 0.0000064 -0.0000014 -0.0000044 -0.0000243 -0.0000024 -0.0000071 0.0000273 -0.0000301 -0.0000195 0.0000245 -0.0000016 -0.0000053 -0.0000055 -0.0000008 -0.0000038 -0.0000030 -0.0000042 -0.0000079 -0.0000213 -0.0000180 -0.0000027 -0.0000096 -0.0000027 -0.0000208 -0.0000060 -0.0000149 -0.0000056 0.0000033 -0.0000023 -0.0000005 -0.0000045 -0.0000189 -0.0000020 -0.0000320 -0.0000055 -0.0000216 0.0000298 -0.0000705 0.0000164 -0.0000314
-0.0000007 -0.0000160 -0.0000312 0.0000126 0.0000105 -0.0000099 -0.0000052 -0.0000284 -0.0000032 -0.0000139 0.0000390 -0.0000431 -0.0000282 0.0000355 0.0000000 -0.0000113 -0.0000076 -0.0000009 -0.0000052 -0.0000081 -0.0000051 -0.0000243 -0.0000265 -0.0000233 -0.0000028 -0.0000183 -0.0000036 -0.0000291 -0.0000089 -0.0000262 -0.0000072 -0.0000007 -0.0000035 -0.0000088 -0.0000052 -0.0000317 -0.0000026 -0.0000611 -0.0000066 -0.0000388 0.0000459 -0.0001183 0.0000248 -0.0000582
-0.0000023 -0.0000227 -0.0000598 0.0000162 0.0000092 -0.0000172 -0.0000125 -0.0000314 -0.0000040 -0.0000229 0.0000502 -0.0000554 -0.0000365 0.0000460 0.0000047 -0.0000270 -0.0000091 0.0000004 -0.0000059 -0.0000152 -0.0000058 -0.0000383 -0.0000299 -0.0000267 -0.0000031 -0.0000259 -0.0000042 -0.0000354 -0.0000103 -0.0000361 -0.0000091 -0.0000001 -0.0000044 -0.0000068 -0.0000075 -0.0000369 -0.0000030 -0.0000673 -0.0000070 -0.0000440 0.0000615 -0.0001426 0.0000315 -0.0000673
-0.0000067 -0.0000269 -0.0000285 -0.0000095 0.0000157 -0.0000202 -0.0000163 -0.0000283 -0.0000048 -0.0000282 0.0000616 -0.0000684 -0.0000451 0.0000567 0.0000008 -0.0000272 -0.0000108 0.0000073 -0.0000071 -0.0000161 -0.0000082 -0.0000228 -0.0000325 -0.0000261 -0.0000035 -0.0000284 -0.0000046 -0.0000389 -0.0000128 -0.0000342 -0.0000116 0.0000093 -0.0000058 0.0000048 -0.0000095 -0.0000347 -0.0000045 -0.0000619 -0.0000078 -0.0000401 0.0000775 -0.0001579 0.0000382 -0.0000698
-0.0000076 -0.0000327 0.0000352 -0.0000559 0.0000156 -0.0000178 -0.0000176 -0.0000339 -0.0000054 -0.0000303 0.0000719 -0.0000803 -0.0000570 0.0000717 -0.0000059 -0.0000194 -0.0000133 0.0000147 -0.0000093 -0.0000156 -0.0000104 -0.0000096 -0.0000320 -0.0000267 -0.0000044 -0.0000300 -0.0000050 -0.0000416 -0.0000156 -0.0000326 -0.0000144 0.0000178 -0.0000068 0.0000134 -0.0000125 -0.0000343 -0.0000055 -0.0000606 -0.0000098 -0.0000374 0.0000948 -0.0001750 0.0000444 -0.0000738
-0.0000106 -0.0000360 0.0000569 -0.0000855 0.0000143 -0.0000187 -0.0000244 -0.0000339 -0.0000083 -0.0000299 0.0000795 -0.0000893 -0.0000645 0.0000812 -0.0000009 -0.0000238 -0.0000157 0.0000184 -0.0000122 -0.0000158 -0.0000127 -0.0000012 -0.0000266 -0.0000231 -0.0000048 -0.0000318 -0.0000054 -0.0000417 -0.0000183 -0.0000320 -0.0000171 0.0000241 -0.0000082 0.0000186 -0.0000154 -0.0000367 -0.0000070 -0.0000634 -0.0000122 -0.0000376 0.0001104 -0.0001962 0.0000494 -0.0000840
-0.0000108 -0.0000416 0.0000688 -0.0000873 0.0000170 -0.0000224 -0.0000304 -0.0000270 -0.0000075 -0.0000332 0.0000842 -0.0000952 -0.0000737 0.0000927 -0.0000069 -0.0000271 -0.0000181 0.0000188 -0.0000142 -0.0000192 -0.0000145 -0.0000029 -0.0000167 -0.0000176 -0.0000045 -0.0000355 -0.0000052 -0.0000401 -0.0000215 -0.0000341 -0.0000191 0.0000251 -0.0000095 0.0000176 -0.0000170 -0.0000434 -0.0000079 -0.0000750 -0.0000148 -0.0000429 0.0001257 -0.0002252 0.0000547 -0.0001028
-0.0000095 -0.0000469 0.0000802 -0.0001438 0.0000162 -0.0000250 -0.0000342 -0.0000245 -0.0000057 -0.0000398 0.0000853 -0.0000969 -0.0000773 0.0000972 -0.0000084 -0.0000272 -0.0000199 0.0000186 -0.0000167 -0.0000235 -0.0000157 -0.0000110 -0.0000060 -0.0000124 -0.0000042 -0.0000412 -0.0000047 -0.0000378 -0.0000236 -0.0000388 -0.0000209 0.0000244 -0.0000116 0.0000113 -0.0000179 -0.0000492 -0.0000086 -0.0000918 -0.0000160 -0.0000520 0.0001420 -0.0002595 0.0000585 -0.0001257
-0.0000045 -0.0000461 0.0000845 -0.0001384 0.0000143 -0.0000325 -0.0000270 -0.0000222 -0.0000034 -0.0000452 0.0000765 -0.0000874 -0.0000738 0.0000927 -0.0000125 -0.0000327 -0.0000214 0.0000180 -0.0000190 -0.0000306 -0.0000167 -0.0000247 0.0000065 -0.0000060 -0.0000037 -0.0000500 -0.0000046 -0.0000347 -0.0000246 -0.0000473 -0.0000224 0.0000204 -0.0000135 -0.0000002 -0.0000174 -0.0000577 -0.0000091 -0.0001164 -0.0000169 -0.0000657 0.0001581 -0.0002995 0.0000627 -0.0001554
-0.0000023 -0.0000458 0.0000789 -0.0001820 0.0000196 -0.0000465 -0.0000365 -0.0000077 -0.0000027 -0.0000536 0.0000707 -0.0000807 -0.0000709 0.0000891 -0.0000175 -0.0000369 -0.0000220 0.0000173 -0.0000207 -0.0000395 -0.0000170 -0.0000369 0.0000167 -0.0000036 -0.0000034 -0.0000596 -0.0000040 -0.0000305 -0.0000263 -0.0000531 -0.0000241 0.0000205 -0.0000152 -0.0000020 -0.0000185 -0.0000595 -0.0000093 -0.0001181 -0.0000178 -0.0000673 0.0001736 -0.0003177 0.0000654 -0.0001672
-0.0000049 -0.0000431 0.0000645 -0.0001719 0.0000216 -0.0000509 -0.0000301 -0.0000101 -0.0000035 -0.0000566 0.0000657 -0.0000761 -0.0000660 0.0000829 -0.0000176 -0.0000347 -0.0000236 0.0000229 -0.0000228 -0.0000426 -0.0000188 -0.0000192 0.0000269 0.0000015 -0.0000046 -0.0000633 -0.0000034 -0.0000234 -0.0000274 -0.0000494 -0.0000267 0.0000289 -0.0000168 0.0000029 -0.0000195 -0.0000554 -0.0000108 -0.0001112 -0.0000190 -0.0000631 0.0001876 -0.0003287 0.0000675 -0.0001746
-0.0000065 -0.0000387 0.0000438 -0.0001590 0.0000157 -0.0000500 -0.0000272 0.0000001 -0.0000030 -0.0000578 0.0000573 -0.0000672 -0.0000600 0.0000753 -0.0000138 -0.0000426 -0.0000257 0.0000271 -0.0000249 -0.0000467 -0.0000198 -0.0000098 0.0000347 0.0000063 -0.0000056 -0.0000677 -0.0000027 -0.0000151 -0.0000299 -0.0000460 -0.0000284 0.0000340 -0.0000186 0.0000044 -0.0000211 -0.0000545 -0.0000121 -0.0001088 -0.0000212 -0.0000614 0.0002015 -0.0003370 0.0000695 -0.0001838
-0.0000043 -0.0000387 0.0000967 -0.0001876 0.0000244 -0.0000528 -0.0000084 -0.0000051 -0.0000038 -0.0000589 0.0000512 -0.0000613 -0.0000523 0.0000657 -0.0000082 -0.0000486 -0.0000279 0.0000268 -0.0000279 -0.0000512 -0.0000212 -0.0000045 0.0000406 0.0000086 -0.0000067 -0.0000732 -0.0000017 -0.0000076 -0.0000319 -0.0000451 -0.0000301 0.0000369 -0.0000208 0.0000038 -0.0000228 -0.0000559 -0.0000133 -0.0001098 -0.0000242 -0.0000617 0.0002144 -0.0003468 0.0000726 -0.0001950
-0.0000029 -0.0000352 0.0000846 -0.0001812 0.0000232 -0.0000541 -0.0000159 0.0000087 -0.0000042 -0.0000625 0.0000486 -0.0000591 -0.0000486 0.0000610 -0.0000027 -0.0000542 -0.0000300 0.0000238 -0.0000304 -0.0000578 -0.0000229 -0.0000069 0.0000434 0.0000089 -0.0000073 -0.0000812 -0.0000009 -0.0000022 -0.0000336 -0.0000481 -0.0000318 0.0000354 -0.0000225 -0.0000013 -0.0000237 -0.0000598 -0.0000142 -0.0001188 -0.0000258 -0.0000664 0.0002293 -0.0003589 0.0000765 -0.0002072
-0.0000038 -0.0000314 0.0001171 -0.0002165 0.0000183 -0.0000560 -0.0000122 0.0000100 -0.0000023 -0.0000705 0.0000468 -0.0000566 -0.0000446 0.0000559 -0.0000074 -0.0000551 -0.0000313 0.0000197 -0.0000323 -0.0000663 -0.0000242 -0.0000147 0.0000386 0.0000064 -0.0000076 -0.0000919 -0.0000007 -0.0000003 -0.0000356 -0.0000532 -0.0000322 0.0000311 -0.0000240 -0.0000085 -0.0000231 -0.0000647 -0.0000149 -0.0001328 -0.0000266 -0.0000729 0.0002457 -0.0003740 0.0000818 -0.0002182
-0.0000016 -0.0000330 0.0001660 -0.0002648 0.0000194 -0.0000639 -0.0000094 0.0000082 -0.0000013 -0.0000816 0.0000536 -0.0000629 -0.0000445 0.0000559 -0.0000004 -0.0000697 -0.0000319 0.0000160 -0.0000343 -0.0000756 -0.0000248 -0.0000282 0.0000242 -0.0000028 -0.0000092 -0.0001038 -0.0000012 -0.0000026 -0.0000363 -0.0000621 -0.0000326 0.0000252 -0.0000249 -0.0000173 -0.0000213 -0.0000718 -0.0000147 -0.0001547 -0.0000262 -0.0000835 0.0002628 -0.0003941 0.0000879 -0.0002290
-0.0000029 -0.0000332 0.0001460 -0.0002563 0.0000202 -0.0000772 -0.0000067 0.0000073 0.0000002 -0.0000944 0.0000620 -0.0000709 -0.0000446 0.0000559 -0.0000006 -0.0000818 -0.0000313 0.0000120 -0.0000357 -0.0000865 -0.0000250 -0.0000382 0.0000064 -0.0000159 -0.0000107 -0.0001152 -0.0000025 -0.0000073 -0.0000368 -0.0000675 -0.0000337 0.0000255 -0.0000255 -0.0000142 -0.0000213 -0.0000721 -0.0000157 -0.0001509 -0.0000254 -0.0000826 0.0002781 -0.0003883 0.0000939 -0.0002182
0.0000002 -0.0000371 0.0001237 -0.0002397 0.0000109 -0.0000671 -0.0000189 0.0000082 -0.0000012 -0.0001001 0.0000725 -0.0000812 -0.0000436 0.0000546 0.0000000 -0.0000892 -0.0000315 0.0000141 -0.0000372 -0.0000925 -0.0000257 -0.0000267 -0.0000184 -0.0000335 -0.0000134 -0.0001240 -0.0000041 -0.0000140 -0.0000372 -0.0000669 -0.0000343 0.0000312 -0.0000262 -0.0000075 -0.0000210 -0.0000703 -0.0000171 -0.0001470 -0.0000250 -0.0000793 0.0002914 -0.0003761 0.0001008 -0.0002031
-0.0000012 -0.0000392 0.0000930 -0.0001820 0.0000084 -0.0000670 -0.0000244 -0.0000020 -0.0000012 -0.0001073 0.0000829 -0.0000909 -0.0000457 0.0000574 -0.0000126 -0.0000779 -0.0000321 0.0000141 -0.0000388 -0.0000989 -0.0000271 -0.0000201 -0.0000454 -0.0000552 -0.0000163 -0.0001329 -0.0000062 -0.0000218 -0.0000382 -0.0000678 -0.0000345 0.0000344 -0.0000272 -0.0000030 -0.0000209 -0.0000726 -0.0000185 -0.0001475 -0.0000251 -0.0000796 0.0003070 -0.0003676 0.0001079 -0.0001902
-0.0000036 -0.0000394 0.0001127 -0.0002290 0.0000117 -0.0000722 -0.0000136 -0.0000167 -0.0000009 -0.0001151 0.0000924 -0.0001005 -0.0000474 0.0000595 -0.0000164 -0.0000789 -0.0000329 0.0000113 -0.0000408 -0.0001058 -0.0000288 -0.0000168 -0.0000651 -0.0000716 -0.0000192 -0.0001421 -0.0000074 -0.0000265 -0.0000388 -0.0000695 -0.0000350 0.0000368 -0.0000275 -0.0000005 -0.0000209 -0.0000772 -0.0000198 -0.0001523 -0.0000259 -0.0000829 0.0003207 -0.0003621 0.0001147 -0.0001828
-0.0000057 -0.0000394 0.0001306 -0.0002760 0.0000060 -0.0000709 -0.0000102 -0.0000200 -0.0000000 -0.0001225 0.0000980 -0.0001066 -0.0000442 0.0000555 -0.0000197 -0.0000790 -0.0000339 0.0000060 -0.0000427 -0.0001146 -0.0000292 -0.0000221 -0.0000756 -0.0000820 -0.0000209 -0.0001519 -0.0000084 -0.0000296 -0.0000394 -0.0000742 -0.0000346 0.0000353 -0.0000286 -0.0000009 -0.0000205 -0.0000840 -0.0000211 -0.0001620 -0.0000261 -0.0000898 0.0003329 -0.0003603 0.0001203 -0.0001786
-0.0000064 -0.0000391 0.0001901 -0.0003203 0.0000037 -0.0000729 -0.0000029 -0.0000261 0.0000011 -0.0001313 0.0000992 -0.0001074 -0.0000385 0.0000484 -0.0000172 -0.0000867 -0.0000349 0.0000010 -0.0000436 -0.0001257 -0.0000297 -0.0000315 -0.0000846 -0.0000903 -0.0000216 -0.0001640 -0.0000093 -0.0000321 -0.0000389 -0.0000816 -0.0000341 0.0000323 -0.0000296 -0.0000037 -0.0000189 -0.0000913 -0.0000221 -0.0001752 -0.0000263 -0.0000981 0.0003440 -0.0003620 0.0001260 -0.0001787
-0.0000069 -0.0000355 0.0002355 -0.0003585 0.0000044 -0.0000845 -0.0000026 -0.0000195 0.0000037 -0.0001404 0.0000946 -0.0001026 -0.0000313 0.0000394 -0.0000213 -0.0000866 -0.0000349 -0.0000051 -0.0000445 -0.0001384 -0.0000297 -0.0000446 -0.0000865 -0.0000942 -0.0000224 -0.0001771 -0.0000104 -0.0000331 -0.0000376 -0.0000907 -0.0000333 0.0000280 -0.0000306 -0.0000101 -0.0000162 -0.0001000 -0.0000227 -0.0001939 -0.0000254 -0.0001111 0.0003538 -0.0003690 0.0001309 -0.0001827
-0.0000045 -0.0000361 0.0001961 -0.0003562 0.0000009 -0.0000949 -0.0000078 -0.0000109 0.0000064 -0.0001514 0.0000904 -0.0000981 -0.0000223 0.0000281 -0.0000198 -0.0000966 -0.0000349 -0.0000105 -0.0000465 -0.0001521 -0.0000295 -0.0000611 -0.0000907 -0.0000994 -0.0000235 -0.0001914 -0.0000111 -0.0000334 -0.0000355 -0.0001001 -0.0000320 0.0000233 -0.0000311 -0.0000144 -0.0000142 -0.0001075 -0.0000240 -0.0002043 -0.0000246 -0.0001214 0.0003620 -0.0003688 0.0001346 -0.0001815
-0.0000050 -0.0000366 0.0001681 -0.0003599 0.0000130 -0.0001091 -0.0000133 0.0000019 0.0000075 -0.0001608 0.0000866 -0.0000949 -0.0000141 0.0000178 -0.0000082 -0.0001180 -0.0000343 -0.0000137 -0.0000477 -0.0001640 -0.0000307 -0.0000610 -0.0000929 -0.0001024 -0.0000245 -0.0002039 -0.0000119 -0.0000318 -0.0000336 -0.0001023 -0.0000308 0.0000238 -0.0000323 -0.0000116 -0.0000124 -0.0001099 -0.0000257 -0.0002057 -0.0000232 -0.0001270 0.0003674 -0.0003620 0.0001379 -0.0001743
-0.0000061 -0.0000364 0.0001172 -0.0003274 0.0000097 -0.0001047 0.0000088 -0.0000071 0.0000087 -0.0001675 0.0000774 -0.0000855 -0.0000016 0.0000021 -0.0000087 -0.0001231 -0.0000344 -0.0000166 -0.0000493 -0.0001747 -0.0000320 -0.0000575 -0.0000928 -0.0001075 -0.0000263 -0.0002150 -0.0000133 -0.0000297 -0.0000315 -0.0001034 -0.0000303 0.0000257 -0.0000334 -0.0000077 -0.0000107 -0.0001119 -0.0000274 -0.0002060 -0.0000231 -0.0001314 0.0003718 -0.0003536 0.0001402 -0.0001649
-0.0000079 -0.0000409 0.0000978 -0.0003156 -0.0000003 -0.0000949 0.0000170 -0.0000116 0.0000092 -0.0001735 0.0000734 -0.0000822 0.0000111 -0.0000140 -0.0000092 -0.0001317 -0.0000346 -0.0000214 -0.0000510 -0.0001852 -0.0000335 -0.0000559 -0.0000954 -0.0001113 -0.0000277 -0.0002254 -0.0000146 -0.0000283 -0.0000286 -0.0001044 -0.0000301 0.0000279 -0.0000345 -0.0000040 -0.0000093 -0.0001159 -0.0000292 -0.0002062 -0.0000224 -0.0001357 0.0003741 -0.0003447 0.0001411 -0.0001548
-0.0000057 -0.0000423 0.0000826 -0.0002884 -0.0000027 -0.0000936 0.0000286 -0.0000088 0.0000103 -0.0001759 0.0000627 -0.0000735 0.0000305 -0.0000384 -0.0000101 -0.0001379 -0.0000354 -0.0000289 -0.0000524 -0.0001972 -0.0000348 -0.0000577 -0.0000823 -0.0001121 -0.0000288 -0.0002358 -0.0000169 -0.0000309 -0.0000257 -0.0001040 -0.0000286 0.0000282 -0.0000357 -0.0000026 -0.0000083 -0.0001231 -0.0000309 -0.0002096 -0.0000216 -0.0001445 0.0003755 -0.0003321 0.0001430 -0.0001438
-0.0000058 -0.0000363 0.0000728 -0.0002942 0.0000109 -0.0001119 0.0000423 0.0000038 0.0000110 -0.0001768 0.0000512 -0.0000653 0.0000579 -0.0000729 -0.0000101 -0.0001448 -0.0000366 -0.0000365 -0.0000541 -0.0002102 -0.0000364 -0.0000620 -0.0000659 -0.0001104 -0.0000299 -0.0002466 -0.0000192 -0.0000348 -0.0000225 -0.0001041 -0.0000271 0.0000274 -0.0000368 -0.0000028 -0.0000067 -0.0001309 -0.0000325 -0.0002164 -0.0000211 -0.0001542 0.0003761 -0.0003241 0.0001448 -0.0001340
-0.0000064 -0.0000361 0.0000966 -0.0003043 0.0000006 -0.0001099 0.0000532 0.0000045 0.0000139 -0.0001832 0.0000381 -0.0000525 0.0000829 -0.0001044 -0.0000163 -0.0001527 -0.0000368 -0.0000453 -0.0000554 -0.0002229 -0.0000370 -0.0000712 -0.0000729 -0.0001214 -0.0000325 -0.0002593 -0.0000209 -0.0000393 -0.0000193 -0.0001083 -0.0000254 0.0000244 -0.0000381 -0.0000039 -0.0000043 -0.0001408 -0.0000340 -0.0002324 -0.0000192 -0.0001657 0.0003775 -0.0003249 0.0001468 -0.0001341
-0.0000076 -0.0000403 0.0000612 -0.0002815 0.0000070 -0.0001289 0.0000370 0.0000185 0.0000166 -0.0001958 0.0000256 -0.0000379 0.0001011 -0.0001274 -0.0000143 -0.0001696 -0.0000362 -0.0000559 -0.0000560 -0.0002396 -0.0000366 -0.0000971 -0.0000745 -0.0001313 -0.0000334 -0.0002760 -0.0000210 -0.0000429 -0.0000159 -0.0001190 -0.0000228 0.0000173 -0.0000389 -0.0000085 -0.0000018 -0.0001519 -0.0000354 -0.0002433 -0.0000161 -0.0001758 0.0003789 -0.0003128 0.0001473 -0.0001294
-0.0000079 -0.0000392 0.0000443 -0.0002908 0.0000185 -0.0001458 0.0000384 0.0000219 0.0000199 -0.0002052 0.0000081 -0.0000192 0.0001215 -0.0001531 -0.0000127 -0.0001756 -0.0000352 -0.0000621 -0.0000561 -0.0002532 -0.0000372 -0.0000994 -0.0000687 -0.0001357 -0.0000345 -0.0002877 -0.0000205 -0.0000437 -0.0000124 -0.0001222 -0.0000203 0.0000186 -0.0000397 -0.0000047 0.0000017 -0.0001536 -0.0000375 -0.0002412 -0.0000122 -0.0001775 0.0003794 -0.0002918 0.0001459 -0.0001170
-0.0000122 -0.0000328 0.0000432 -0.0003094 0.0000082 -0.0001397 0.0000440 0.0000235 0.0000213 -0.0002082 -0.0000090 -0.0000017 0.0001388 -0.0001752 -0.0000069 -0.0001932 -0.0000352 -0.0000668 -0.0000565 -0.0002640 -0.0000371 -0.0000968 -0.0000610 -0.0001390 -0.0000356 -0.0002966 -0.0000198 -0.0000425 -0.0000094 -0.0001227 -0.0000190 0.0000218 -0.0000411 0.0000001 0.0000049 -0.0001560 -0.0000398 -0.0002383 -0.0000078 -0.0001780 0.0003790 -0.0002691 0.0001445 -0.0001044
-0.0000111 -0.0000286 0.0000319 -0.0002806 0.0000131 -0.0001474 0.0000561 0.0000185 0.0000221 -0.0002106 -0.0000281 0.0000199 0.0001526 -0.0001925 -0.0000147 -0.0001959 -0.0000356 -0.0000738 -0.0000571 -0.0002738 -0.0000382 -0.0000915 -0.0000520 -0.0001369 -0.0000366 -0.0003034 -0.0000185 -0.0000418 -0.0000064 -0.0001213 -0.0000179 0.0000256 -0.0000424 0.0000068 0.0000067 -0.0001600 -0.0000419 -0.0002326 -0.0000042 -0.0001764 0.0003787 -0.0002436 0.0001435 -0.0000912
-0.0000100 -0.0000201 -0.0000010 -0.0002357 0.0000132 -0.0001458 0.0000638 0.0000186 0.0000233 -0.0002152 -0.0000418 0.0000353 0.0001636 -0.0002063 -0.0000087 -0.0002012 -0.0000365 -0.0000811 -0.0000572 -0.0002837 -0.0000395 -0.0000898 -0.0000362 -0.0001309 -0.0000369 -0.0003092 -0.0000166 -0.0000408 -0.0000028 -0.0001213 -0.0000168 0.0000274 -0.0000434 0.0000115 0.0000083 -0.0001668 -0.0000438 -0.0002304 -0.0000003 -0.0001767 0.0003772 -0.0002184 0.0001420 -0.0000799
-0.0000070 -0.0000119 -0.0000178 -0.0002257 0.0000064 -0.0001407 0.0000564 0.0000250 0.0000265 -0.0002206 -0.0000592 0.0000542 0.0001726 -0.0002177 -0.0000096 -0.0002029 -0.0000369 -0.0000889 -0.0000581 -0.0002932 -0.0000404 -0.0000913 -0.0000066 -0.0001135 -0.0000355 -0.0003148 -0.0000153 -0.0000404 0.0000013 -0.0001230 -0.0000153 0.0000258 -0.0000446 0.0000106 0.0000107 -0.0001754 -0.0000451 -0.0002403 0.0000033 -0.0001810 0.0003759 -0.0002030 0.0001411 -0.0000787
-0.0000034 -0.0000044 0.0000488 -0.0002734 0.0000078 -0.0001454 0.0000652 0.0000251 0.0000295 -0.0002284 -0.0000706 0.0000671 0.0001794 -0.0002264 -0.0000163 -0.0001988 -0.0000366 -0.0000989 -0.0000575 -0.0003071 -0.0000393 -0.0001175 0.0000207 -0.0000984 -0.0000342 -0.0003246 -0.0000143 -0.0000423 0.0000053 -0.0001347 -0.0000126 0.0000138 -0.0000460 -0.0000010 0.0000156 -0.0001904 -0.0000461 -0.0002696 0.0000081 -0.0001965 0.0003774 -0.0002017 0.0001413 -0.0000867
-0.0000042 0.0000059 0.0000269 -0.0002906 0.0000074 -0.0001595 0.0000744 0.0000235 0.0000300 -0.0002381 -0.0000763 0.0000733 0.0001832 -0.0002311 -0.0000090 -0.0002130 -0.0000349 -0.0001067 -0.0000569 -0.0003212 -0.0000389 -0.0001363 0.0000501 -0.0000830 -0.0000321 -0.0003331 -0.0000129 -0.0000442 0.0000096 -0.0001425 -0.0000104 0.0000071 -0.0000467 -0.0000011 0.0000210 -0.0001934 -0.0000475 -0.0002738 0.0000139 -0.0001993 0.0003779 -0.0001791 0.0001408 -0.0000783
0.0000010 0.0000135 0.0000529 -0.0003216 0.0000076 -0.0001631 0.0000827 0.0000247 0.0000307 -0.0002442 -0.0000811 0.0000789 0.0001858 -0.0002345 -0.0000018 -0.0002254 -0.0000331 -0.0001106 -0.0000560 -0.0003306 -0.0000386 -0.0001367 0.0000768 -0.0000678 -0.0000307 -0.0003367 -0.0000117 -0.0000466 0.0000137 -0.0001431 -0.0000090 0.0000079 -0.0000470 0.0000056 0.0000256 -0.0001893 -0.0000494 -0.0002682 0.0000199 -0.0001940 0.0003765 -0.0001459 0.0001405 -0.0000606
0.0000052 0.0000179 0.0000832 -0.0003104 0.0000031 -0.0001570 0.0000851 0.0000268 0.0000299 -0.0002472 -0.0000801 0.0000798 0.0001906 -0.0002407 -0.0000042 -0.0002290 -0.0000330 -0.0001140 -0.0000552 -0.0003377 -0.0000383 -0.0001320 0.0000832 -0.0000628 -0.0000307 -0.0003382 -0.0000122 -0.0000575 0.0000168 -0.0001403 -0.0000072 0.0000112 -0.0000473 0.0000157 0.0000281 -0.0001879 -0.0000514 -0.0002585 0.0000257 -0.0001863 0.0003769 -0.0001060 0.0001411 -0.0000338
0.0000103 0.0000207 0.0000688 -0.0002819 0.0000031 -0.0001560 0.0000841 0.0000109 0.0000287 -0.0002504 -0.0000679 0.0000687 0.0001869 -0.0002359 0.0000033 -0.0002362 -0.0000337 -0.0001185 -0.0000547 -0.0003418 -0.0000397 -0.0001236 0.0000801 -0.0000643 -0.0000316 -0.0003387 -0.0000131 -0.0000729 0.0000198 -0.0001377 -0.0000066 0.0000157 -0.0000477 0.0000268 0.0000288 -0.0001905 -0.0000536 -0.0002497 0.0000300 -0.0001793 0.0003785 -0.0000661 0.0001428 -0.0000084
0.0000136 0.0000238 0.0000453 -0.0002579 0.0000096 -0.0001574 0.0000834 -0.0000085 0.0000296 -0.0002553 -0.0000507 0.0000515 0.0001815 -0.0002291 -0.0000002 -0.0002285 -0.0000340 -0.0001262 -0.0000544 -0.0003461 -0.0000400 -0.0001266 0.0000808 -0.0000640 -0.0000321 -0.0003414 -0.0000142 -0.0000888 0.0000226 -0.0001411 -0.0000046 0.0000120 -0.0000482 0.0000266 0.0000297 -0.0002025 -0.0000559 -0.0002624 0.0000334 -0.0001842 0.0003801 -0.0000461 0.0001443 0.0000017
0.0000167 0.0000289 0.0000532 -0.0002928 0.0000182 -0.0001683 0.0000896 -0.0000309 0.0000290 -0.0002635 -0.0000359 0.0000375 0.0001767 -0.0002229 0.0000031 -0.0002391 -0.0000331 -0.0001369 -0.0000531 -0.0003552 -0.0000391 -0.0001516 0.0000848 -0.0000618 -0.0000315 -0.0003489 -0.0000147 -0.0001047 0.0000250 -0.0001534 -0.0000018 0.0000001 -0.0000487 0.0000160 0.0000336 -0.0002181 -0.0000573 -0.0002905 0.0000382 -0.0001981 0.0003818 -0.0000363 0.0001466 -0.0000007
0.0000204 0.0000306 0.0000975 -0.0003350 0.0000168 -0.0001710 0.0000946 -0.0000542 0.0000310 -0.0002803 -0.0000182 0.0000208 0.0001678 -0.0002117 -0.0000014 -0.0002479 -0.0000301 -0.0001472 -0.0000499 -0.0003675 -0.0000368 -0.0001866 0.0000901 -0.0000618 -0.0000299 -0.0003591 -0.0000146 -0.0001211 0.0000290 -0.0001725 0.0000012 -0.0000127 -0.0000489 0.0000069 0.0000405 -0.0002250 -0.0000582 -0.0003089 0.0000446 -0.0002058 0.0003821 -0.0000125 0.0001479 0.0000062
0.0000233 0.0000339 0.0001643 -0.0003585 0.0000140 -0.0001742 0.0000867 -0.0000716 0.0000320 -0.0002921 0.0000003 0.0000030 0.0001559 -0.0001966 -0.0000051 -0.0002498 -0.0000264 -0.0001506 -0.0000471 -0.0003746 -0.0000350 -0.0001937 0.0000931 -0.0000601 -0.0000288 -0.0003631 -0.0000135 -0.0001349 0.0000327 -0.0001822 0.0000040 -0.0000157 -0.0000484 0.0000080 0.0000475 -0.0002192 -0.0000603 -0.0003096 0.0000518 -0.0002005 0.0003820 0.0000220 0.0001484 0.0000196
0.0000266 0.0000346 0.0002355 -0.0004138 0.0000155 -0.0001794 0.0000649 -0.0000771 0.0000326 -0.0003028 0.0000201 -0.0000165 0.0001416 -0.0001785 -0.0000113 -0.0002474 -0.0000234 -0.0001527 -0.0000447 -0.0003785 -0.0000333 -0.0001912 0.0000990 -0.0000534 -0.0000271 -0.0003633 -0.0000116 -0.0001461 0.0000353 -0.0001858 0.0000069 -0.0000154 -0.0000481 0.0000130 0.0000531 -0.0002148 -0.0000629 -0.0003040 0.0000591 -0.0001914 0.0003838 0.0000587 0.0001484 0.0000336
0.0000281 0.0000439 0.0002139 -0.0003588 0.0000211 -0.0001843 0.0000673 -0.0000919 0.0000331 -0.0003069 0.0000338 -0.0000297 0.0001256 -0.0001583 -0.0000083 -0.0002496 -0.0000217 -0.0001559 -0.0000426 -0.0003807 -0.0000332 -0.0001843 0.0001094 -0.0000419 -0.0000251 -0.0003619 -0.0000096 -0.0001546 0.0000382 -0.0001886 0.0000086 -0.0000144 -0.0000476 0.0000199 0.0000554 -0.0002134 -0.0000654 -0.0002973 0.0000644 -0.0001824 0.0003856 0.0000964 0.0001491 0.0000466
0.0000291 0.0000484 0.0002334 -0.0003748 0.0000276 -0.0001868 0.0000470 -0.0000955 0.0000325 -0.0003131 0.0000585 -0.0000523 0.0000925 -0.0001166 -0.0000041 -0.0002634 -0.0000208 -0.0001603 -0.0000414 -0.0003819 -0.0000331 -0.0001850 0.0001013 -0.0000331 -0.0000234 -0.0003613 -0.0000059 -0.0001559 0.0000397 -0.0001990 0.0000101 -0.0000207 -0.0000471 0.0000175 0.0000579 -0.0002205 -0.0000676 -0.0003107 0.0000702 -0.0001812 0.0003864 0.0001119 0.0001487 0.0000389
0.0000284 0.0000480 0.0002281 -0.0003634 0.0000147 -0.0001824 0.0000319 -0.0001214 0.0000308 -0.0003278 0.0000789 -0.0000664 0.0000470 -0.0000592 -0.0000013 -0.0002769 -0.0000178 -0.0001693 -0.0000384 -0.0003885 -0.0000307 -0.0002120 0.0000914 -0.0000304 -0.0000202 -0.0003678 -0.0000010 -0.0001571 0.0000420 -0.0002214 0.0000125 -0.0000368 -0.0000464 0.0000035 0.0000625 -0.0002334 -0.0000693 -0.0003404 0.0000767 -0.0001906 0.0003891 0.0001168 0.0001492 0.0000173
0.0000335 0.0000494 0.0002072 -0.0003746 0.0000152 -0.0001895 0.0000281 -0.0001392 0.0000298 -0.0003410 0.0001034 -0.0000902 0.0000125 -0.0000157 0.0000056 -0.0002857 -0.0000134 -0.0001784 -0.0000348 -0.0004003 -0.0000279 -0.0002483 0.0001199 -0.0000054 -0.0000143 -0.0003754 0.0000024 -0.0001590 0.0000469 -0.0002476 0.0000164 -0.0000567 -0.0000461 -0.0000179 0.0000708 -0.0002408 -0.0000708 -0.0003701 0.0000840 -0.0002037 0.0003893 0.0001252 0.0001488 0.0000029
0.0000374 0.0000586 0.0002385 -0.0003899 0.0000169 -0.0001957 0.0000293 -0.0001412 0.0000321 -0.0003527 0.0001269 -0.0001163 -0.0000142 0.0000179 0.0000081 -0.0002916 -0.0000080 -0.0001830 -0.0000307 -0.0004094 -0.0000252 -0.0002627 0.0001428 0.0000144 -0.0000098 -0.0003796 0.0000039 -0.0001634 0.0000525 -0.0002638 0.0000204 -0.0000683 -0.0000449 -0.0000241 0.0000797 -0.0002339 -0.0000729 -0.0003776 0.0000907 -0.0002037 0.0003889 0.0001383 0.0001496 0.0000031
0.0000414 0.0000599 0.0002074 -0.0003292 0.0000159 -0.0001989 0.0000221 -0.0001469 0.0000306 -0.0003613 0.0001547 -0.0001453 -0.0000409 0.0000516 0.0000095 -0.0003059 -0.0000035 -0.0001861 -0.0000276 -0.0004140 -0.0000233 -0.0002649 0.0001554 0.0000293 -0.0000059 -0.0003806 0.0000050 -0.0001695 0.0000579 -0.0002736 0.0000228 -0.0000749 -0.0000438 -0.0000238 0.0000865 -0.0002281 -0.0000754 -0.0003782 0.0000979 -0.0002014 0.0003876 0.0001548 0.0001509 0.0000077
0.0000432 0.0000563 0.0001833 -0.0002996 0.0000272 -0.0002077 0.0000004 -0.0001521 0.0000311 -0.0003718 0.0001810 -0.0001717 -0.0000704 0.0000888 0.0000142 -0.0003075 0.0000001 -0.0001902 -0.0000250 -0.0004174 -0.0000229 -0.0002622 0.0001662 0.0000438 -0.0000026 -0.0003798 0.0000055 -0.0001758 0.0000627 -0.0002794 0.0000255 -0.0000798 -0.0000420 -0.0000208 0.0000903 -0.0002253 -0.0000778 -0.0003731 0.0001027 -0.0001970 0.0003852 0.0001760 0.0001512 0.0000143
0.0000429 0.0000504 0.0001634 -0.0003139 0.0000282 -0.0002073 -0.0000019 -0.0001630 0.0000314 -0.0003781 0.0002042 -0.0001968 -0.0000880 0.0001109 0.0000149 -0.0003082 0.0000022 -0.0001949 -0.0000240 -0.0004192 -0.0000226 -0.0002600 0.0001749 0.0000559 -0.0000000 -0.0003783 0.0000056 -0.0001796 0.0000665 -0.0002846 0.0000283 -0.0000842 -0.0000400 -0.0000191 0.0000920 -0.0002263 -0.0000801 -0.0003697 0.0001061 -0.0001961 0.0003818 0.0001915 0.0001507 0.0000182
0.0000424 0.0000419 0.0001453 -0.0003155 0.0000350 -0.0002104 -0.0000167 -0.0001580 0.0000319 -0.0003812 0.0002207 -0.0002144 -0.0001024 0.0001290 0.0000117 -0.0003175 0.0000048 -0.0002041 -0.0000221 -0.0004236 -0.0000214 -0.0002770 0.0001777 0.0000616 0.0000029 -0.0003829 0.0000052 -0.0001847 0.0000690 -0.0002975 0.0000316 -0.0000976 -0.0000388 -0.0000316 0.0000953 -0.0002379 -0.0000820 -0.0003930 0.0001086 -0.0002094 0.0003778 0.0001854 0.0001507 0.0000050
0.0000418 0.0000387 0.0001464 -0.0003081 0.0000430 -0.0002261 -0.0000150 -0.0001643 0.0000334 -0.0003895 0.0002297 -0.0002234 -0.0001053 0.0001325 0.0000238 -0.0003402 0.0000087 -0.0002154 -0.0000191 -0.0004342 -0.0000191 -0.0003121 0.0001768 0.0000585 0.0000052 -0.0003932 0.0000049 -0.0001905 0.0000735 -0.0003196 0.0000361 -0.0001166 -0.0000377 -0.0000489 0.0001007 -0.0002482 -0.0000839 -0.0004147 0.0001121 -0.0002262 0.0003723 0.0001837 0.0001500 -0.0000035
0.0000420 0.0000348 0.0001193 -0.0002917 0.0000571 -0.0002477 -0.0000200 -0.0001709 0.0000345 -0.0003981 0.0002361 -0.0002303 -0.0001094 0.0001377 0.0000295 -0.0003548 0.0000138 -0.0002209 -0.0000153 -0.0004409 -0.0000166 -0.0003224 0.0001700 0.0000531 0.0000069 -0.0004003 0.0000049 -0.0001951 0.0000788 -0.0003335 0.0000404 -0.0001256 -0.0000363 -0.0000564 0.0001072 -0.0002458 -0.0000862 -0.0004212 0.0001171 -0.0002328 0.0003650 0.0001910 0.0001496 -0.0000057
0.0000430 0.0000309 0.0001428 -0.0002963 0.0000674 -0.0002591 -0.0000034 -0.0001828 0.0000382 -0.0004049 0.0002331 -0.0002255 -0.0001083 0.0001363 0.0000436 -0.0003709 0.0000187 -0.0002257 -0.0000115 -0.0004461 -0.0000146 -0.0003264 0.0001616 0.0000467 0.0000082 -0.0004055 0.0000047 -0.0001992 0.0000836 -0.0003440 0.0000444 -0.0001313 -0.0000348 -0.0000613 0.0001123 -0.0002429 -0.0000886 -0.0004235 0.0001214 -0.0002364 0.0003587 0.0001973 0.0001492 -0.0000051
0.0000441 0.0000284 0.0001601 -0.0003356 0.0000663 -0.0002586 -0.0000051 -0.0001850 0.0000405 -0.0004096 0.0002341 -0.0002266 -0.0001140 0.0001435 0.0000383 -0.0003774 0.0000232 -0.0002293 -0.0000081 -0.0004500 -0.0000133 -0.0003252 0.0001484 0.0000367 0.0000091 -0.0004101 0.0000044 -0.0002019 0.0000886 -0.0003533 0.0000488 -0.0001357 -0.0000332 -0.0000629 0.0001168 -0.0002425 -0.0000913 -0.0004228 0.0001246 -0.0002388 0.0003532 0.0002044 0.0001490 -0.0000021
0.0000484 0.0000245 0.0001231 -0.0002945 0.0000667 -0.0002645 -0.0000072 -0.0001825 0.0000423 -0.0004126 0.0002374 -0.0002307 -0.0001179 0.0001484 0.0000490 -0.0003886 0.0000275 -0.0002336 -0.0000052 -0.0004530 -0.0000127 -0.0003242 0.0001394 0.0000325 0.0000102 -0.0004130 0.0000039 -0.0002047 0.0000943 -0.0003644 0.0000524 -0.0001407 -0.0000319 -0.0000661 0.0001207 -0.0002441 -0.0000937 -0.0004245 0.0001271 -0.0002422 0.0003471 0.0002113 0.0001493 -0.0000017
0.0000478 0.0000271 0.0000989 -0.0002545 0.0000778 -0.0002709 -0.0000160 -0.0001748 0.0000443 -0.0004153 0.0002373 -0.0002304 -0.0001222 0.0001539 0.0000523 -0.0003971 0.0000322 -0.0002378 -0.0000020 -0.0004564 -0.0000108 -0.0003318 0.0001320 0.0000244 0.0000114 -0.0004177 0.0000033 -0.0002083 0.0000992 -0.0003785 0.0000576 -0.0001520 -0.0000308 -0.0000792 0.0001261 -0.0002497 -0.0000957 -0.0004455 0.0001297 -0.0002550 0.0003415 0.0002026 0.0001502 -0.0000149
0.0000456 0.0000280 0.0000990 -0.0002290 0.0000845 -0.0002820 -0.0000185 -0.0001756 0.0000464 -0.0004235 0.0002385 -0.0002315 -0.0001230 0.0001547 0.0000437 -0.0003994 0.0000380 -0.0002424 0.0000014 -0.0004627 -0.0000087 -0.0003498 0.0001200 0.0000165 0.0000126 -0.0004242 0.0000028 -0.0002130 0.0001041 -0.0003946 0.0000626 -0.0001626 -0.0000294 -0.0000876 0.0001331 -0.0002488 -0.0000974 -0.0004520 0.0001325 -0.0002606 0.0003354 0.0002085 0.0001506 -0.0000166
0.0000487 0.0000239 0.0000592 -0.0001825 0.0000856 -0.0002828 -0.0000287 -0.0001721 0.0000482 -0.0004268 0.0002404 -0.0002336 -0.0001258 0.0001584 0.0000437 -0.0004025 0.0000439 -0.0002418 0.0000049 -0.0004634 -0.0000066 -0.0003460 0.0001065 0.0000064 0.0000137 -0.0004259 0.0000022 -0.0002169 0.0001098 -0.0004029 0.0000675 -0.0001655 -0.0000274 -0.0000878 0.0001391 -0.0002386 -0.0000997 -0.0004448 0.0001357 -0.0002566 0.0003289 0.0002230 0.0001505 -0.0000093
0.0000461 0.0000271 0.0000033 -0.0000959 0.0000819 -0.0002806 -0.0000226 -0.0001808 0.0000478 -0.0004241 0.0002420 -0.0002353 -0.0001285 0.0001618 0.0000546 -0.0004076 0.0000487 -0.0002418 0.0000079 -0.0004622 -0.0000058 -0.0003364 0.0000917 -0.0000056 0.0000143 -0.0004253 0.0000015 -0.0002201 0.0001140 -0.0004068 0.0000713 -0.0001656 -0.0000257 -0.0000848 0.0001409 -0.0002320 -0.0001019 -0.0004337 0.0001376 -0.0002512 0.0003235 0.0002398 0.0001503 0.0000002
0.0000436 0.0000285 -0.0000087 -0.0000835 0.0000793 -0.0002781 -0.0000139 -0.0001895 0.0000479 -0.0004221 0.0002434 -0.0002367 -0.0001292 0.0001627 0.0000624 -0.0004187 0.0000519 -0.0002419 0.0000110 -0.0004593 -0.0000061 -0.0003219 0.0000760 -0.0000144 0.0000150 -0.0004228 0.0000012 -0.0002227 0.0001182 -0.0004090 0.0000742 -0.0001638 -0.0000242 -0.0000782 0.0001416 -0.0002289 -0.0001041 -0.0004195 0.0001383 -0.0002460 0.0003195 0.0002557 0.0001507 0.0000100
0.0000406 0.0000291 -0.0000224 -0.0000636 0.0000813 -0.0002745 -0.0000251 -0.0001855 0.0000480 -0.0004201 0.0002479 -0.0002415 -0.0001335 0.0001681 0.0000635 -0.0004134 0.0000539 -0.0002412 0.0000139 -0.0004549 -0.0000066 -0.0003089 0.0000588 -0.0000251 0.0000154 -0.0004195 0.0000006 -0.0002257 0.0001214 -0.0004115 0.0000775 -0.0001628 -0.0000225 -0.0000727 0.0001410 -0.0002269 -0.0001060 -0.0004057 0.0001374 -0.0002406 0.0003141 0.0002743 0.0001512 0.0000213
0.0000380 0.0000311 -0.0000131 -0.0001244 0.0000799 -0.0002707 -0.0000325 -0.0001858 0.0000491 -0.0004177 0.0002517 -0.0002459 -0.0001348 0.0001697 0.0000722 -0.0004157 0.0000566 -0.0002432 0.0000161 -0.0004513 -0.0000064 -0.0003062 0.0000422 -0.0000373 0.0000160 -0.0004187 -0.0000004 -0.0002310 0.0001248 -0.0004187 0.0000811 -0.0001678 -0.0000212 -0.0000784 0.0001421 -0.0002321 -0.0001075 -0.0004141 0.0001367 -0.0002463 0.0003114 0.0002725 0.0001522 0.0000190
0.0000343 0.0000339 -0.0000064 -0.0001396 0.0000882 -0.0002816 -0.0000156 -0.0002125 0.0000495 -0.0004208 0.0002586 -0.0002535 -0.0001374 0.0001730 0.0000756 -0.0004132 0.0000604 -0.0002478 0.0000189 -0.0004520 -0.0000059 -0.0003209 0.0000218 -0.0000525 0.0000171 -0.0004214 -0.0000014 -0.0002389 0.0001276 -0.0004314 0.0000846 -0.0001761 -0.0000200 -0.0000818 0.0001438 -0.0002335 -0.0001082 -0.0004140 0.0001360 -0.0002484 0.0003088 0.0002812 0.0001539 0.0000241
0.0000326 0.0000357 -0.0000090 -0.0001729 0.0000927 -0.0002825 -0.0000267 -0.0002139 0.0000514 -0.0004246 0.0002656 -0.0002618 -0.0001431 0.0001803 0.0000790 -0.0004097 0.0000644 -0.0002456 0.0000217 -0.0004468 -0.0000061 -0.0003141 -0.0000023 -0.0000686 0.0000173 -0.0004178 -0.0000032 -0.0002473 0.0001310 -0.0004348 0.0000866 -0.0001757 -0.0000189 -0.0000756 0.0001459 -0.0002238 -0.0001102 -0.0004010 0.0001356 -0.0002390 0.0003051 0.0003015 0.0001551 0.0000406
0.0000312 0.0000380 -0.0000128 -0.0001451 0.0000925 -0.0002763 -0.0000411 -0.0002126 0.0000530 -0.0004255 0.0002736 -0.0002707 -0.0001532 0.0001929 0.0000749 -0.0004002 0.0000669 -0.0002414 0.0000233 -0.0004372 -0.0000079 -0.0003006 -0.0000379 -0.0000919 0.0000166 -0.0004131 -0.0000059 -0.0002576 0.0001334 -0.0004343 0.0000872 -0.0001741 -0.0000178 -0.0000653 0.0001455 -0.0002169 -0.0001123 -0.0003871 0.0001343 -0.0002277 0.0003022 0.0003243 0.0001561 0.0000594
0.0000278 0.0000398 -0.0000136 -0.0001403 0.0000932 -0.0002720 -0.0000329 -0.0002353 0.0000510 -0.0004255 0.0002802 -0.0002736 -0.0001705 0.0002146 0.0000820 -0.0004006 0.0000687 -0.0002363 0.0000248 -0.0004233 -0.0000094 -0.0002833 -0.0000922 -0.0001198 0.0000148 -0.0004058 -0.0000090 -0.0002699 0.0001341 -0.0004300 0.0000863 -0.0001720 -0.0000173 -0.0000523 0.0001436 -0.0002078 -0.0001148 -0.0003701 0.0001323 -0.0002136 0.0002986 0.0003510 0.0001558 0.0000780
0.0000273 0.0000426 0.0000114 -0.0001917 0.0000922 -0.0002688 -0.0000102 -0.0002642 0.0000484 -0.0004241 0.0002908 -0.0002766 -0.0002004 0.0002521 0.0000768 -0.0003805 0.0000713 -0.0002265 0.0000283 -0.0004069 -0.0000107 -0.0002621 -0.0001559 -0.0001552 0.0000128 -0.0003953 -0.0000127 -0.0002893 0.0001366 -0.0004221 0.0000854 -0.0001685 -0.0000173 -0.0000411 0.0001449 -0.0001865 -0.0001171 -0.0003500 0.0001306 -0.0001928 0.0002930 0.0003800 0.0001556 0.0000926
0.0000310 0.0000457 0.0000436 -0.0002013 0.0000818 -0.0002550 0.0000023 -0.0002833 0.0000426 -0.0004244 0.0002983 -0.0002669 -0.0002356 0.0002961 0.0000764 -0.0003611 0.0000759 -0.0002073 0.0000328 -0.0003855 -0.0000100 -0.0002403 -0.0002357 -0.0002090 0.0000110 -0.0003815 -0.0000175 -0.0003221 0.0001408 -0.0004077 0.0000846 -0.0001693 -0.0000184 -0.0000378 0.0001526 -0.0001507 -0.0001200 -0.0003447 0.0001318 -0.0001687 0.0002888 0.0003965 0.0001549 0.0000937
0.0000351 0.0000529 0.0001015 -0.0001926 0.0000748 -0.0002451 -0.0000078 -0.0002798 0.0000370 -0.0004284 0.0003085 -0.0002560 -0.0002739 0.0003441 0.0000853 -0.0003539 0.0000856 -0.0001817 0.0000402 -0.0003643 -0.0000058 -0.0002435 -0.0003218 -0.0002694 0.0000115 -0.0003669 -0.0000239 -0.0003643 0.0001486 -0.0003983 0.0000854 -0.0001751 -0.0000197 -0.0000534 0.0001715 -0.0000970 -0.0001217 -0.0003515 0.0001384 -0.0001429 0.0002870 0.0004058 0.0001540 0.0000845
0.0000349 0.0000543 0.0000692 -0.0001576 0.0000722 -0.0002478 0.0000051 -0.0002718 0.0000304 -0.0004339 0.0003194 -0.0002450 -0.0003139 0.0003940 0.0000967 -0.0003381 0.0000993 -0.0001448 0.0000509 -0.0003370 0.0000013 -0.0002304 -0.0004179 -0.0003417 0.0000114 -0.0003454 -0.0000313 -0.0004071 0.0001588 -0.0003808 0.0000852 -0.0001774 -0.0000219 -0.0000554 0.0001944 -0.0000213 -0.0001235 -0.0003304 0.0001473 -0.0001002 0.0002813 0.0004360 0.0001522 0.0000934
0.0000358 0.0000468 0.0000280 -0.0001088 0.0000731 -0.0002392 0.0000301 -0.0002533 0.0000239 -0.0004337 0.0003328 -0.0002379 -0.0003602 0.0004518 0.0000901 -0.0003049 0.0001126 -0.0001012 0.0000626 -0.0003006 0.0000081 -0.0001994 -0.0005170 -0.0004209 0.0000113 -0.0003174 -0.0000383 -0.0004482 0.0001684 -0.0003539 0.0000823 -0.0001776 -0.0000243 -0.0000509 0.0002161 0.0000606 -0.0001258 -0.0002994 0.0001545 -0.0000469 0.0002757 0.0004724 0.0001502 0.0001102
0.0000274 0.0000397 0.0000294 -0.0000861 0.0000638 -0.0002179 0.0000633 -0.0002235 0.0000179 -0.0004296 0.0003470 -0.0002333 -0.0004057 0.0005084 0.0000899 -0.0002813 0.0001247 -0.0000564 0.0000738 -0.0002592 0.0000139 -0.0001628 -0.0006159 -0.0004970 0.0000107 -0.0002844 -0.0000453 -0.0004872 0.0001771 -0.0003203 0.0000781 -0.0001789 -0.0000279 -0.0000431 0.0002354 0.0001417 -0.0001282 -0.0002634 0.0001609 0.0000093 0.0002685 0.0005139 0.0001475 0.0001325
0.0000214 0.0000262 -0.0000132 -0.0000171 0.0000667 -0.0002041 0.0000682 -0.0001627 0.0000103 -0.0004178 0.0003689 -0.0002441 -0.0004505 0.0005643 0.0000784 -0.0002394 0.0001359 -0.0000102 0.0000844 -0.0002136 0.0000193 -0.0001208 -0.0007144 -0.0005642 0.0000103 -0.0002465 -0.0000518 -0.0005231 0.0001848 -0.0002823 0.0000727 -0.0001801 -0.0000325 -0.0000341 0.0002540 0.0002252 -0.0001312 -0.0002258 0.0001676 0.0000678 0.0002604 0.0005566 0.0001443 0.0001560
0.0000117 0.0000148 -0.0000414 0.0000811 0.0000746 -0.0001951 0.0001020 -0.0001091 0.0000026 -0.0004025 0.0003861 -0.0002529 -0.0004808 0.0006018 0.0000946 -0.0002149 0.0001467 0.0000396 0.0000942 -0.0001649 0.0000243 -0.0000770 -0.0008114 -0.0006256 0.0000103 -0.0002041 -0.0000585 -0.0005607 0.0001928 -0.0002396 0.0000669 -0.0001774 -0.0000374 -0.0000271 0.0002733 0.0003152 -0.0001338 -0.0001871 0.0001756 0.0001299 0.0002512 0.0005948 0.0001419 0.0001767
0.0000026 0.0000054 -0.0000251 0.0001102 0.0000809 -0.0001836 0.0001403 -0.0000730 -0.0000038 -0.0003913 0.0003993 -0.0002563 -0.0005105 0.0006388 0.0000903 -0.0001828 0.0001585 0.0000886 0.0001039 -0.0001173 0.0000320 -0.0000557 -0.0009131 -0.0006923 0.0000110 -0.0001652 -0.0000659 -0.0006010 0.0002022 -0.0002049 0.0000631 -0.0001832 -0.0000427 -0.0000380 0.0002967 0.0004021 -0.0001359 -0.0001768 0.0001851 0.0001796 0.0002425 0.0006117 0.0001397 0.0001815
-0.0000026 -0.0000092 -0.0000187 0.0001312 0.0000731 -0.0001719 0.0001627 -0.0000163 -0.0000109 -0.0003833 0.0004146 -0.0002651 -0.0005358 0.0006701 0.0000827 -0.0001521 0.0001713 0.0001375 0.0001153 -0.0000733 0.0000408 -0.0000439 -0.0010149 -0.0007533 0.0000122 -0.0001271 -0.0000734 -0.0006414 0.0002122 -0.0001735 0.0000587 -0.0001908 -0.0000485 -0.0000489 0.0003212 0.0004931 -0.0001374 -0.0001564 0.0001943 0.0002314 0.0002334 0.0006396 0.0001372 0.0001961
-0.0000037 -0.0000236 -0.0000123 0.0001257 0.0000741 -0.0001635 0.0001951 0.0000423 -0.0000178 -0.0003744 0.0004261 -0.0002713 -0.0005591 0.0006991 0.0000931 -0.0001345 0.0001832 0.0001875 0.0001266 -0.0000255 0.0000496 -0.0000113 -0.0011173 -0.0008130 0.0000132 -0.0000853 -0.0000809 -0.0006821 0.0002219 -0.0001332 0.0000529 -0.0001931 -0.0000550 -0.0000532 0.0003435 0.0005879 -0.0001393 -0.0001261 0.0002030 0.0002873 0.0002236 0.0006712 0.0001351 0.0002171
-0.0000101 -0.0000298 0.0000377 0.0000886 0.0000780 -0.0001494 0.0002323 0.0001013 -0.0000251 -0.0003621 0.0004329 -0.0002721 -0.0005805 0.0007255 0.0000953 -0.0001063 0.0001934 0.0002377 0.0001368 0.0000231 0.0000568 0.0000260 -0.0012208 -0.0008717 0.0000130 -0.0000414 -0.0000884 -0.0007237 0.0002313 -0.0000894 0.0000468 -0.0001931 -0.0000620 -0.0000554 0.0003643 0.0006810 -0.0001410 -0.0000917 0.0002105 0.0003443 0.0002133 0.0007053 0.0001322 0.0002424
-0.0000098 -0.0000351 0.0001245 0.0000548 0.0000839 -0.0001373 0.0002602 0.0001634 -0.0000330 -0.0003470 0.0004408 -0.0002760 -0.0005992 0.0007487 0.0000911 -0.0000736 0.0002021 0.0002897 0.0001462 0.0000733 0.0000639 0.0000707 -0.0013253 -0.0009258 0.0000129 0.0000051 -0.0000959 -0.0007634 0.0002417 -0.0000434 0.0000402 -0.0001892 -0.0000685 -0.0000555 0.0003844 0.0007757 -0.0001425 -0.0000550 0.0002187 0.0004036 0.0002034 0.0007385 0.0001299 0.0002685
-0.0000109 -0.0000381 0.0001324 0.0000502 0.0000816 -0.0001172 0.0002800 0.0002428 -0.0000383 -0.0003285 0.0004440 -0.0002760 -0.0006176 0.0007714 0.0000923 -0.0000362 0.0002113 0.0003420 0.0001548 0.0001249 0.0000711 0.0001131 -0.0014250 -0.0009775 0.0000129 0.0000529 -0.0001030 -0.0007990 0.0002504 0.0000026 0.0000343 -0.0001851 -0.0000753 -0.0000562 0.0004046 0.0008725 -0.0001439 -0.0000207 0.0002268 0.0004647 0.0001928 0.0007656 0.0001273 0.0002899
-0.0000151 -0.0000424 0.0001586 0.0000551 0.0000899 -0.0001165 0.0003220 0.0002968 -0.0000441 -0.0003137 0.0004474 -0.0002752 -0.0006330 0.0007906 0.0001067 -0.0000244 0.0002223 0.0003911 0.0001643 0.0001731 0.0000795 0.0001305 -0.0015247 -0.0010335 0.0000141 0.0000963 -0.0001103 -0.0008361 0.0002608 0.0000391 0.0000299 -0.0001908 -0.0000817 -0.0000723 0.0004292 0.0009650 -0.0001439 -0.0000131 0.0002374 0.0005147 0.0001827 0.0007739 0.0001251 0.0002938
-0.0000186 -0.0000530 0.0001655 0.0001047 0.0000940 -0.0001156 0.0003567 0.0003515 -0.0000517 -0.0003037 0.0004493 -0.0002699 -0.0006492 0.0008106 0.0001066 -0.0000023 0.0002339 0.0004416 0.0001746 0.0002201 0.0000884 0.0001451 -0.0016283 -0.0010942 0.0000156 0.0001399 -0.0001169 -0.0008710 0.0002707 0.0000750 0.0000249 -0.0001944 -0.0000876 -0.0000808 0.0004544 0.0010646 -0.0001437 0.0000148 0.0002487 0.0005720 0.0001720 0.0008001 0.0001223 0.0003113
-0.0000221 -0.0000759 0.0001391 0.0001728 0.0000845 -0.0000979 0.0003731 0.0004057 -0.0000608 -0.0002948 0.0004494 -0.0002572 -0.0006717 0.0008384 0.0000984 0.0000290 0.0002452 0.0004959 0.0001854 0.0002728 0.0000972 0.0001826 -0.0017358 -0.0011693 0.0000155 0.0001877 -0.0001233 -0.0009087 0.0002806 0.0001183 0.0000185 -0.0001901 -0.0000930 -0.0000812 0.0004782 0.0011680 -0.0001440 0.0000538 0.0002593 0.0006370 0.0001613 0.0008353 0.0001205 0.0003441
-0.0000316 -0.0001040 0.0001312 0.0001830 0.0000850 -0.0000812 0.0004112 0.0004264 -0.0000698 -0.0002824 0.0004566 -0.0002502 -0.0006994 0.0008724 0.0001030 0.0000536 0.0002542 0.0005501 0.0001951 0.0003275 0.0001038 0.0002297 -0.0018414 -0.0012429 0.0000159 0.0002391 -0.0001313 -0.0009480 0.0002892 0.0001667 0.0000128 -0.0001815 -0.0000981 -0.0000760 0.0004982 0.0012689 -0.0001433 0.0000990 0.0002700 0.0007024 0.0001505 0.0008691 0.0001200 0.0003858
-0.0000427 -0.0001366 0.0001315 0.0001739 0.0000872 -0.0000709 0.0004318 0.0004477 -0.0000806 -0.0002685 0.0004672 -0.0002410 -0.0007280 0.0009078 0.0001116 0.0000764 0.0002628 0.0006050 0.0002041 0.0003833 0.0001105 0.0002827 -0.0019380 -0.0013225 0.0000169 0.0002954 -0.0001438 -0.0009939 0.0002959 0.0002204 0.0000073 -0.0001670 -0.0001023 -0.0000654 0.0005160 0.0013698 -0.0001423 0.0001487 0.0002790 0.0007702 0.0001387 0.0008873 0.0001235 0.0004392
-0.0000584 -0.0001717 0.0001529 0.0001828 0.0000805 -0.0000443 0.0004365 0.0004813 -0.0000887 -0.0002514 0.0004831 -0.0002396 -0.0007430 0.0009262 0.0000982 0.0001205 0.0002706 0.0006609 0.0002120 0.0004379 0.0001161 0.0003346 -0.0020060 -0.0013788 0.0000201 0.0003535 -0.0001517 -0.0010248 0.0003039 0.0002750 0.0000034 -0.0001493 -0.0001067 -0.0000622 0.0005335 0.0014683 -0.0001416 0.0001921 0.0002879 0.0008344 0.0001288 0.0009147 0.0001235 0.0004694
-0.0000741 -0.0002079 0.0002327 0.0001424 0.0000772 -0.0000169 0.0004432 0.0005270 -0.0000940 -0.0002337 0.0004984 -0.0002531 -0.0007287 0.0009086 0.0001051 0.0001449 0.0002785 0.0007082 0.0002184 0.0004853 0.0001228 0.0003579 -0.0020444 -0.0014043 0.0000258 0.0004045 -0.0001535 -0.0010287 0.0003117 0.0003163 0.0000005 -0.0001429 -0.0001116 -0.0000780 0.0005505 0.0015479 -0.0001401 0.0002074 0.0002960 0.0008789 0.0001211 0.0009263 0.0001218 0.0004779
-0.0000910 -0.0002454 0.0002098 0.0001751 0.0000852 -0.0000128 0.0004732 0.0005698 -0.0000962 -0.0002127 0.0005147 -0.0002814 -0.0007014 0.0008747 0.0001119 0.0001516 0.0002854 0.0007439 0.0002245 0.0005233 0.0001290 0.0003617 -0.0020535 -0.0014045 0.0000324 0.0004470 -0.0001525 -0.0010135 0.0003172 0.0003418 -0.0000020 -0.0001384 -0.0001154 -0.0000925 0.0005634 0.0016095 -0.0001370 0.0002318 0.0003018 0.0009113 0.0001133 0.0009425 0.0001203 0.0004957
-0.0001105 -0.0002822 0.0002088 0.0001356 0.0000846 0.0000024 0.0005141 0.0005999 -0.0000956 -0.0001927 0.0005256 -0.0003118 -0.0006718 0.0008380 0.0001128 0.0001654 0.0002868 0.0007715 0.0002284 0.0005575 0.0001313 0.0003895 -0.0020444 -0.0013839 0.0000378 0.0004861 -0.0001481 -0.0009774 0.0003176 0.0003679 -0.0000073 -0.0001322 -0.0001201 -0.0000885 0.0005645 0.0016503 -0.0001363 0.0002629 0.0003013 0.0009373 0.0001041 0.0009635 0.0001177 0.0005175
-0.0001209 -0.0003075 0.0002224 0.0001138 0.0000866 0.0000178 0.0005406 0.0006222 -0.0000942 -0.0001701 0.0005364 -0.0003491 -0.0006375 0.0007954 0.0001056 0.0001791 0.0002837 0.0007903 0.0002275 0.0005870 0.0001293 0.0004228 -0.0020144 -0.0013320 0.0000437 0.0005240 -0.0001421 -0.0009302 0.0003161 0.0003937 -0.0000123 -0.0001154 -0.0001232 -0.0000813 0.0005590 0.0016816 -0.0001364 0.0002988 0.0002983 0.0009624 0.0000956 0.0009841 0.0001131 0.0005380
-0.0001308 -0.0003250 0.0002088 0.0001354 0.0000768 0.0000380 0.0005236 0.0006661 -0.0000950 -0.0001461 0.0005385 -0.0003754 -0.0006045 0.0007546 0.0001165 0.0001842 0.0002779 0.0008060 0.0002234 0.0006120 0.0001256 0.0004631 -0.0019829 -0.0012661 0.0000499 0.0005612 -0.0001355 -0.0008789 0.0003131 0.0004243 -0.0000150 -0.0000884 -0.0001258 -0.0000704 0.0005511 0.0017115 -0.0001364 0.0003415 0.0002954 0.0009884 0.0000856 0.0010016 0.0001059 0.0005560
-0.0001357 -0.0003354 0.0001831 0.0001747 0.0000716 0.0000552 0.0005169 0.0006755 -0.0000942 -0.0001248 0.0005337 -0.0003918 -0.0005677 0.0007089 0.0001116 0.0002050 0.0002711 0.0008195 0.0002181 0.0006332 0.0001209 0.0005036 -0.0019473 -0.0011982 0.0000566 0.0005965 -0.0001284 -0.0008243 0.0003095 0.0004522 -0.0000158 -0.0000571 -0.0001281 -0.0000622 0.0005433 0.0017366 -0.0001374 0.0003743 0.0002917 0.0010086 0.0000754 0.0010018 0.0000995 0.0005615
-0.0001383 -0.0003401 0.0002257 0.0000970 0.0000554 0.0000767 0.0005152 0.0006631 -0.0000956 -0.0001092 0.0005233 -0.0003942 -0.0005339 0.0006670 0.0001064 0.0002174 0.0002655 0.0008284 0.0002132 0.0006474 0.0001181 0.0005120 -0.0019176 -0.0011509 0.0000635 0.0006218 -0.0001220 -0.0007778 0.0003071 0.0004635 -0.0000143 -0.0000351 -0.0001293 -0.0000703 0.0005389 0.0017531 -0.0001367 0.0003824 0.0002881 0.0010152 0.0000687 0.0009872 0.0000940 0.0005522
-0.0001403 -0.0003477 0.0002634 0.0000502 0.0000568 0.0000794 0.0005000 0.0006312 -0.0000968 -0.0001066 0.0005185 -0.0003960 -0.0005115 0.0006391 0.0001113 0.0002147 0.0002616 0.0008312 0.0002099 0.0006557 0.0001166 0.0005017 -0.0018877 -0.0011139 0.0000704 0.0006390 -0.0001158 -0.0007332 0.0003037 0.0004632 -0.0000129 -0.0000232 -0.0001305 -0.0000846 0.0005357 0.0017604 -0.0001356 0.0003806 0.0002834 0.0010098 0.0000622 0.0009733 0.0000877 0.0005388
-0.0001401 -0.0003589 0.0002451 0.0000336 0.0000443 0.0000850 0.0004795 0.0006158 -0.0001002 -0.0001024 0.0005153 -0.0003997 -0.0004902 0.0006126 0.0001062 0.0002289 0.0002571 0.0008342 0.0002067 0.0006629 0.0001133 0.0005109 -0.0018575 -0.0010787 0.0000772 0.0006564 -0.0001084 -0.0006851 0.0002983 0.0004686 -0.0000128 -0.0000052 -0.0001313 -0.0000811 0.0005287 0.0017720 -0.0001354 0.0004063 0.0002770 0.0010140 0.0000567 0.0009782 0.0000808 0.0005404
-0.0001440 -0.0003682 0.0002795 -0.0000441 0.0000378 0.0000953 0.0004733 0.0005833 -0.0001008 -0.0000988 0.0005110 -0.0003979 -0.0004695 0.0005868 0.0001031 0.0002406 0.0002509 0.0008386 0.0002017 0.0006739 0.0001078 0.0005384 -0.0018326 -0.0010524 0.0000834 0.0006762 -0.0001001 -0.0006358 0.0002929 0.0004825 -0.0000119 0.0000221 -0.0001311 -0.0000654 0.0005198 0.0017869 -0.0001361 0.0004465 0.0002717 0.0010273 0.0000500 0.0009922 0.0000732 0.0005487
-0.0001494 -0.0003772 0.0002868 -0.0000524 0.0000338 0.0001046 0.0004663 0.0005427 -0.0001022 -0.0000897 0.0005072 -0.0003948 -0.0004597 0.0005746 0.0000979 0.0002609 0.0002449 0.0008466 0.0001967 0.0006865 0.0001021 0.0005737 -0.0018069 -0.0010220 0.0000892 0.0006999 -0.0000916 -0.0005818 0.0002882 0.0004982 -0.0000108 0.0000568 -0.0001299 -0.0000450 0.0005103 0.0018052 -0.0001380 0.0004933 0.0002675 0.0010461 0.0000415 0.0010100 0.0000636 0.0005586
-0.0001565 -0.0003905 0.0002576 -0.0000373 0.0000183 0.0001252 0.0004480 0.0005096 -0.0001054 -0.0000791 0.0005100 -0.0003997 -0.0004520 0.0005651 0.0000913 0.0002752 0.0002392 0.0008573 0.0001921 0.0007010 0.0000965 0.0006122 -0.0017782 -0.0009891 0.0000960 0.0007254 -0.0000825 -0.0005230 0.0002829 0.0005146 -0.0000094 0.0000913 -0.0001284 -0.0000274 0.0005025 0.0018224 -0.0001401 0.0005273 0.0002638 0.0010619 0.0000347 0.0010098 0.0000541 0.0005545
-0.0001666 -0.0004107 0.0002438 -0.0000581 0.0000065 0.0001419 0.0004411 0.0004687 -0.0001072 -0.0000763 0.0005136 -0.0004024 -0.0004485 0.0005607 0.0001020 0.0002704 0.0002360 0.0008656 0.0001898 0.0007114 0.0000931 0.0006169 -0.0017488 -0.0009629 0.0001040 0.0007440 -0.0000736 -0.0004679 0.0002777 0.0005196 -0.0000059 0.0001116 -0.0001276 -0.0000270 0.0004994 0.0018339 -0.0001412 0.0005383 0.0002606 0.0010654 0.0000266 0.0009967 0.0000441 0.0005369
-0.0001732 -0.0004328 0.0001973 -0.0000227 0.0000073 0.0001377 0.0004250 0.0004164 -0.0001096 -0.0000812 0.0005197 -0.0004055 -0.0004444 0.0005556 0.0000938 0.0002747 0.0002343 0.0008706 0.0001894 0.0007177 0.0000913 0.0006084 -0.0017224 -0.0009406 0.0001125 0.0007577 -0.0000655 -0.0004190 0.0002744 0.0005166 -0.0000037 0.0001234 -0.0001276 -0.0000337 0.0004977 0.0018407 -0.0001425 0.0005433 0.0002573 0.0010600 0.0000178 0.0009900 0.0000335 0.0005204
-0.0001794 -0.0004462 0.0001873 -0.0000171 0.0000078 0.0001428 0.0004202 0.0003836 -0.0001093 -0.0000823 0.0005273 -0.0004131 -0.0004432 0.0005540 0.0000862 0.0002884 0.0002318 0.0008777 0.0001882 0.0007262 0.0000881 0.0006217 -0.0016925 -0.0009112 0.0001205 0.0007746 -0.0000574 -0.0003693 0.0002713 0.0005196 -0.0000027 0.0001412 -0.0001283 -0.0000270 0.0004929 0.0018530 -0.0001450 0.0005723 0.0002523 0.0010632 0.0000110 0.0010011 0.0000232 0.0005202
-0.0001802 -0.0004618 0.0001742 -0.0000238 0.0000065 0.0001481 0.0004094 0.0003574 -0.0001125 -0.0000788 0.0005359 -0.0004229 -0.0004433 0.0005541 0.0000788 0.0003030 0.0002282 0.0008875 0.0001859 0.0007377 0.0000845 0.0006517 -0.0016651 -0.0008813 0.0001275 0.0007948 -0.0000504 -0.0003238 0.0002681 0.0005325 -0.0000018 0.0001656 -0.0001291 -0.0000129 0.0004869 0.0018688 -0.0001487 0.0006082 0.0002477 0.0010738 0.0000024 0.0010217 0.0000130 0.0005265
-0.0001863 -0.0004634 0.0002066 -0.0000716 0.0000107 0.0001512 0.0004014 0.0003449 -0.0001107 -0.0000734 0.0005409 -0.0004325 -0.0004331 0.0005413 0.0000929 0.0002978 0.0002240 0.0009009 0.0001832 0.0007495 0.0000803 0.0006896 -0.0016373 -0.0008387 0.0001355 0.0008175 -0.0000434 -0.0002750 0.0002643 0.0005519 0.0000001 0.0001960 -0.0001306 0.0000047 0.0004802 0.0018896 -0.0001532 0.0006528 0.0002447 0.0010891 -0.0000064 0.0010447 0.0000002 0.0005290
-0.0001874 -0.0004657 0.0002555 -0.0001004 0.0000038 0.0001626 0.0003862 0.0003450 -0.0001121 -0.0000616 0.0005405 -0.0004383 -0.0004163 0.0005205 0.0000869 0.0003152 0.0002207 0.0009141 0.0001804 0.0007631 0.0000763 0.0007310 -0.0016107 -0.0007986 0.0001417 0.0008411 -0.0000341 -0.0002229 0.0002622 0.0005715 0.0000023 0.0002266 -0.0001327 0.0000182 0.0004752 0.0019112 -0.0001586 0.0006894 0.0002407 0.0011038 -0.0000146 0.0010602 -0.0000140 0.0005127
-0.0001922 -0.0004633 0.0002836 -0.0001021 -0.0000053 0.0001762 0.0003779 0.0003523 -0.0001106 -0.0000525 0.0005341 -0.0004434 -0.0003869 0.0004838 0.0000775 0.0003334 0.0002186 0.0009248 0.0001791 0.0007726 0.0000747 0.0007418 -0.0015815 -0.0007476 0.0001486 0.0008570 -0.0000185 -0.0001643 0.0002610 0.0005796 0.0000059 0.0002459 -0.0001355 0.0000073 0.0004758 0.0019273 -0.0001626 0.0007025 0.0002392 0.0011048 -0.0000213 0.0010827 -0.0000317 0.0004700
-0.0001885 -0.0004537 0.0002648 -0.0001012 0.0000067 0.0001630 0.0003851 0.0003493 -0.0001081 -0.0000487 0.0005230 -0.0004459 -0.0003635 0.0004546 0.0000817 0.0003330 0.0002182 0.0009320 0.0001792 0.0007791 0.0000755 0.0007387 -0.0015581 -0.0007209 0.0001541 0.0008662 -0.0000081 -0.0001228 0.0002602 0.0005776 0.0000090 0.0002563 -0.0001383 -0.0000019 0.0004781 0.0019387 -0.0001651 0.0007145 0.0002373 0.0010991 -0.0000307 0.0010883 -0.0000427 0.0004532
-0.0001857 -0.0004452 0.0002426 -0.0000711 0.0000077 0.0001582 0.0003802 0.0003425 -0.0001081 -0.0000455 0.0005071 -0.0004322 -0.0003541 0.0004429 0.0000927 0.0003317 0.0002172 0.0009415 0.0001794 0.0007887 0.0000745 0.0007572 -0.0015482 -0.0007229 0.0001560 0.0008772 -0.0000044 -0.0001032 0.0002574 0.0005834 0.0000106 0.0002734 -0.0001408 0.0000090 0.0004773 0.0019538 -0.0001680 0.0007454 0.0002337 0.0011011 -0.0000394 0.0010965 -0.0000498 0.0004625
-0.0001814 -0.0004363 0.0002621 -0.0000903 0.0000005 0.0001694 0.0003757 0.0003287 -0.0001082 -0.0000410 0.0004923 -0.0004206 -0.0003455 0.0004321 0.0000886 0.0003469 0.0002152 0.0009539 0.0001781 0.0008017 0.0000718 0.0007914 -0.0015414 -0.0007234 0.0001567 0.0008920 -0.0000022 -0.0000862 0.0002566 0.0005978 0.0000124 0.0002989 -0.0001434 0.0000278 0.0004734 0.0019739 -0.0001721 0.0007844 0.0002290 0.0011098 -0.0000527 0.0011098 -0.0000564 0.0004814
-0.0001782 -0.0004205 0.0002533 -0.0000662 0.0000043 0.0001730 0.0003489 0.0003217 -0.0001101 -0.0000314 0.0004752 -0.0004044 -0.0003394 0.0004245 0.0000849 0.0003635 0.0002131 0.0009689 0.0001762 0.0008165 0.0000696 0.0008311 -0.0015486 -0.0007417 0.0001556 0.0009081 -0.0000016 -0.0000818 0.0002566 0.0006176 0.0000149 0.0003282 -0.0001454 0.0000505 0.0004703 0.0019967 -0.0001761 0.0008285 0.0002253 0.0011234 -0.0000663 0.0011220 -0.0000607 0.0005101
-0.0001745 -0.0004085 0.0002479 -0.0000005 0.0000037 0.0001793 0.0003310 0.0003074 -0.0001104 -0.0000228 0.0004551 -0.0003805 -0.0003342 0.0004180 0.0000917 0.0003788 0.0002115 0.0009848 0.0001749 0.0008319 0.0000678 0.0008649 -0.0015618 -0.0007728 0.0001537 0.0009237 -0.0000028 -0.0000872 0.0002575 0.0006362 0.0000188 0.0003517 -0.0001475 0.0000618 0.0004704 0.0020167 -0.0001798 0.0008482 0.0002233 0.0011279 -0.0000788 0.0011172 -0.0000617 0.0005259
-0.0001717 -0.0003982 0.0002365 0.0000111 0.0000152 0.0001772 0.0003433 0.0002745 -0.0001097 -0.0000167 0.0004404 -0.0003641 -0.0003240 0.0004052 0.0000880 0.0003913 0.0002122 0.0009993 0.0001755 0.0008443 0.0000684 0.0008668 -0.0015767 -0.0008078 0.0001517 0.0009337 -0.0000046 -0.0000991 0.0002596 0.0006406 0.0000233 0.0003639 -0.0001495 0.0000612 0.0004735 0.0020304 -0.0001824 0.0008503 0.0002220 0.0011223 -0.0000885 0.0011040 -0.0000597 0.0005356
-0.0001702 -0.0003892 0.0002893 -0.0000494 0.0000158 0.0001790 0.0003205 0.0002561 -0.0001113 -0.0000130 0.0004301 -0.0003512 -0.0003113 0.0003894 0.0001005 0.0003875 0.0002144 0.0010105 0.0001777 0.0008545 0.0000699 0.0008615 -0.0016032 -0.0008605 0.0001481 0.0009388 -0.0000079 -0.0001216 0.0002616 0.0006426 0.0000259 0.0003715 -0.0001513 0.0000610 0.0004772 0.0020433 -0.0001839 0.0008588 0.0002197 0.0011168 -0.0000961 0.0011054 -0.0000580 0.0005539
-0.0001671 -0.0003923 0.0003110 -0.0000601 0.0000191 0.0001754 0.0003194 0.0002191 -0.0001122 -0.0000130 0.0004188 -0.0003365 -0.0002963 0.0003708 0.0001072 0.0003907 0.0002150 0.0010231 0.0001792 0.0008681 0.0000694 0.0008842 -0.0016242 -0.0008965 0.0001437 0.0009489 -0.0000108 -0.0001384 0.0002625 0.0006543 0.0000259 0.0003869 -0.0001535 0.0000772 0.0004756 0.0020597 -0.0001869 0.0008892 0.0002159 0.0011206 -0.0001073 0.0011203 -0.0000563 0.0005869
-0.0001674 -0.0003833 0.0002694 -0.0000354 0.0000163 0.0001855 0.0003212 0.0002256 -0.0001113 0.0000030 0.0004017 -0.0003233 -0.0002843 0.0003558 0.0001110 0.0004045 0.0002131 0.0010386 0.0001781 0.0008850 0.0000670 0.0009207 -0.0016313 -0.0009106 0.0001396 0.0009647 -0.0000129 -0.0001476 0.0002635 0.0006747 0.0000263 0.0004081 -0.0001561 0.0001023 0.0004717 0.0020800 -0.0001912 0.0009263 0.0002125 0.0011307 -0.0001201 0.0011361 -0.0000539 0.0006276
-0.0001649 -0.0003661 0.0002133 0.0000442 0.0000166 0.0001989 0.0003098 0.0002492 -0.0001062 0.0000225 0.0003713 -0.0002939 -0.0002627 0.0003289 0.0001141 0.0004229 0.0002125 0.0010598 0.0001761 0.0009026 0.0000643 0.0009657 -0.0016395 -0.0009209 0.0001350 0.0009844 -0.0000179 -0.0001590 0.0002663 0.0007068 0.0000272 0.0004386 -0.0001591 0.0001313 0.0004693 0.0021088 -0.0001975 0.0009569 0.0002091 0.0011462 -0.0001333 0.0011433 -0.0000477 0.0006785
-0.0001545 -0.0003412 0.0001854 0.0001195 0.0000146 0.0002140 0.0003160 0.0002682 -0.0001005 0.0000471 0.0003133 -0.0002362 -0.0002329 0.0002919 0.0001249 0.0004323 0.0002141 0.0010809 0.0001731 0.0009164 0.0000636 0.0009834 -0.0016480 -0.0009333 0.0001298 0.0009988 -0.0000276 -0.0001851 0.0002700 0.0007255 0.0000298 0.0004589 -0.0001620 0.0001447 0.0004700 0.0021287 -0.0002030 0.0009568 0.0002067 0.0011488 -0.0001468 0.0011295 -0.0000365 0.0007243
-0.0001444 -0.0003144 0.0001691 0.0001258 0.0000130 0.0002266 0.0003074 0.0002949 -0.0000951 0.0000677 0.0002597 -0.0001823 -0.0001987 0.0002492 0.0001321 0.0004401 0.0002176 0.0010981 0.0001719 0.0009274 0.0000648 0.0009818 -0.0016593 -0.0009604 0.0001249 0.0010074 -0.0000399 -0.0002216 0.0002719 0.0007353 0.0000321 0.0004703 -0.0001646 0.0001519 0.0004730 0.0021417 -0.0002069 0.0009463 0.0002038 0.0011441 -0.0001567 0.0011086 -0.0000234 0.0007669
-0.0001348 -0.0002915 0.0001956 0.0001190 0.0000234 0.0002221 0.0002953 0.0003180 -0.0000873 0.0000834 0.0002056 -0.0001271 -0.0001667 0.0002093 0.0001464 0.0004457 0.0002211 0.0011120 0.0001711 0.0009375 0.0000659 0.0009721 -0.0016772 -0.0009903 0.0001197 0.0010114 -0.0000519 -0.0002611 0.0002734 0.0007376 0.0000331 0.0004769 -0.0001670 0.0001592 0.0004747 0.0021519 -0.0002109 0.0009442 0.0002009 0.0011398 -0.0001668 0.0011049 -0.0000112 0.0008134
-0.0001294 -0.0002732 0.0001581 0.0001565 0.0000282 0.0002219 0.0002666 0.0003401 -0.0000831 0.0000988 0.0001662 -0.0000891 -0.0001377 0.0001731 0.0001301 0.0004699 0.0002218 0.0011264 0.0001702 0.0009525 0.0000648 0.0009951 -0.0017018 -0.0010216 0.0001120 0.0010197 -0.0000615 -0.0002951 0.0002730 0.0007490 0.0000332 0.0004934 -0.0001690 0.0001829 0.0004711 0.0021648 -0.0002159 0.0009680 0.0001965 0.0011477 -0.0001748 0.0011190 -0.0000023 0.0008613
-0.0001266 -0.0002616 0.0001751 0.0001697 0.0000293 0.0002330 0.0002708 0.0003383 -0.0000822 0.0001191 0.0001223 -0.0000469 -0.0001082 0.0001363 0.0001230 0.0004914 0.0002201 0.0011441 0.0001674 0.0009697 0.0000618 0.0010359 -0.0017184 -0.0010441 0.0001042 0.0010327 -0.0000690 -0.0003223 0.0002722 0.0007732 0.0000338 0.0005206 -0.0001707 0.0002086 0.0004664 0.0021869 -0.0002224 0.0009995 0.0001913 0.0011614 -0.0001849 0.0011335 0.0000052 0.0009112
-0.0001154 -0.0002475 0.0002001 0.0001650 0.0000233 0.0002495 0.0002692 0.0003485 -0.0000800 0.0001481 0.0000647 0.0000056 -0.0000545 0.0000691 0.0001232 0.0005137 0.0002196 0.0011625 0.0001632 0.0009863 0.0000592 0.0010769 -0.0017239 -0.0010469 0.0000971 0.0010474 -0.0000782 -0.0003540 0.0002741 0.0008041 0.0000354 0.0005487 -0.0001734 0.0002243 0.0004649 0.0022081 -0.0002291 0.0010099 0.0001867 0.0011689 -0.0001960 0.0011230 0.0000140 0.0009489
-0.0001035 -0.0002180 0.0002110 0.0001973 0.0000184 0.0002613 0.0002683 0.0003889 -0.0000713 0.0001779 0.0000217 0.0000343 0.0000141 -0.0000170 0.0001283 0.0005277 0.0002218 0.0011802 0.0001592 0.0009973 0.0000594 0.0010894 -0.0017075 -0.0010319 0.0000927 0.0010585 -0.0000901 -0.0003913 0.0002778 0.0008297 0.0000396 0.0005687 -0.0001772 0.0002260 0.0004686 0.0022307 -0.0002361 0.0010004 0.0001831 0.0011678 -0.0002089 0.0010940 0.0000227 0.0009786
-0.0000814 -0.0001721 0.0002028 0.0002279 0.0000183 0.0002680 0.0002542 0.0004556 -0.0000596 0.0002109 0.0000459 -0.0000506 0.0000943 -0.0001175 0.0001277 0.0005562 0.0002254 0.0011962 0.0001546 0.0010053 0.0000611 0.0010898 -0.0016759 -0.0010082 0.0000893 0.0010664 -0.0001035 -0.0004311 0.0002829 0.0008498 0.0000427 0.0005809 -0.0001805 0.0002220 0.0004742 0.0022485 -0.0002424 0.0009815 0.0001783 0.0011613 -0.0002220 0.0010582 0.0000326 0.0010039
-0.0000570 -0.0001195 0.0001717 0.0003056 0.0000279 0.0002634 0.0002616 0.0005227 -0.0000443 0.0002425 0.0001198 -0.0002157 0.0001784 -0.0002232 0.0001285 0.0005763 0.0002291 0.0012094 0.0001502 0.0010091 0.0000634 0.0010796 -0.0016321 -0.0009779 0.0000869 0.0010701 -0.0001176 -0.0004715 0.0002864 0.0008664 0.0000443 0.0005870 -0.0001834 0.0002165 0.0004789 0.0022634 -0.0002487 0.0009677 0.0001729 0.0011528 -0.0002355 0.0010307 0.0000409 0.0010407
-0.0000279 -0.0000625 0.0001688 0.0003581 0.0000377 0.0002562 0.0002654 0.0006009 -0.0000284 0.0002796 0.0002855 -0.0005215 0.0002759 -0.0003461 0.0001380 0.0005986 0.0002309 0.0012239 0.0001438 0.0010170 0.0000635 0.0011041 -0.0015698 -0.0009355 0.0000835 0.0010806 -0.0001323 -0.0005081 0.0002892 0.0008961 0.0000449 0.0006048 -0.0001869 0.0002314 0.0004787 0.0022877 -0.0002571 0.0009805 0.0001667 0.0011565 -0.0002527 0.0010172 0.0000488 0.0010943
-0.0000007 -0.0000020 0.0002121 0.0003628 0.0000296 0.0002722 0.0002796 0.0006898 -0.0000138 0.0003280 0.0006238 -0.0010794 0.0003950 -0.0004966 0.0001442 0.0006230 0.0002310 0.0012399 0.0001359 0.0010262 0.0000607 0.0011458 -0.0014857 -0.0008817 0.0000806 0.0010979 -0.0001477 -0.0005419 0.0002913 0.0009339 0.0000457 0.0006312 -0.0001901 0.0002533 0.0004762 0.0023159 -0.0002677 0.0010007 0.0001604 0.0011693 -0.0002694 0.0010070 0.0000555 0.0011517
0.0000209 0.0000567 0.0001721 0.0004555 0.0000324 0.0002763 0.0002928 0.0007785 0.0000007 0.0003767 0.0009846 -0.0016731 0.0005055 -0.0006364 0.0001331 0.0006559 0.0002311 0.0012555 0.0001282 0.0010362 0.0000590 0.0011679 -0.0014098 -0.0008310 0.0000779 0.0011098 -0.0001630 -0.0005757 0.0002937 0.0009606 0.0000477 0.0006496 -0.0001926 0.0002614 0.0004770 0.0023362 -0.0002767 0.0009952 0.0001557 0.0011739 -0.0002861 0.0009796 0.0000620 0.0011864
0.0000436 0.0001066 0.0002078 0.0004803 0.0000331 0.0002718 0.0002925 0.0008553 0.0000155 0.0004100 0.0012264 -0.0020958 0.0005991 -0.0007552 0.0001374 0.0006706 0.0002333 0.0012692 0.0001243 0.0010426 0.0000594 0.0011678 -0.0013558 -0.0007967 0.0000750 0.0011138 -0.0001772 -0.0006123 0.0002935 0.0009727 0.0000496 0.0006569 -0.0001951 0.0002590 0.0004814 0.0023499 -0.0002842 0.0009749 0.0001523 0.0011692 -0.0002999 0.0009460 0.0000678 0.0012064
0.0000673 0.0001455 0.0001908 0.0005526 0.0000315 0.0002666 0.0002745 0.0009430 0.0000297 0.0004353 0.0014521 -0.0024925 0.0006944 -0.0008765 0.0001435 0.0006876 0.0002376 0.0012792 0.0001200 0.0010485 0.0000610 0.0011581 -0.0012948 -0.0007619 0.0000728 0.0011164 -0.0001921 -0.0006499 0.0002937 0.0009803 0.0000517 0.0006586 -0.0001973 0.0002511 0.0004865 0.0023618 -0.0002911 0.0009465 0.0001481 0.0011584 -0.0003129 0.0009130 0.0000730 0.0012220
0.0000886 0.0001896 0.0001792 0.0005574 0.0000305 0.0002596 0.0002789 0.0010058 0.0000427 0.0004619 0.0016974 -0.0029163 0.0007942 -0.0010038 0.0001443 0.0007039 0.0002406 0.0012888 0.0001164 0.0010534 0.0000627 0.0011511 -0.0012341 -0.0007311 0.0000709 0.0011182 -0.0002062 -0.0006879 0.0002927 0.0009878 0.0000520 0.0006627 -0.0001999 0.0002548 0.0004890 0.0023757 -0.0002978 0.0009425 0.0001423 0.0011556 -0.0003258 0.0009033 0.0000768 0.0012551
0.0001096 0.0002365 0.0002262 0.0005679 0.0000263 0.0002623 0.0002638 0.0010866 0.0000549 0.0004932 0.0019551 -0.0033586 0.0008921 -0.0011290 0.0001376 0.0007321 0.0002417 0.0012993 0.0001110 0.0010615 0.0000611 0.0011755 -0.0011665 -0.0006941 0.0000685 0.0011258 -0.0002215 -0.0007254 0.0002911 0.0010086 0.0000507 0.0006758 -0.0002029 0.0002717 0.0004881 0.0023951 -0.0003065 0.0009545 0.0001364 0.0011622 -0.0003369 0.0009054 0.0000812 0.0012982
0.0001344 0.0002832 0.0002401 0.0005844 0.0000286 0.0002640 0.0002769 0.0011665 0.0000675 0.0005319 0.0022655 -0.0038846 0.0009915 -0.0012564 0.0001386 0.0007560 0.0002417 0.0013122 0.0001043 0.0010728 0.0000581 0.0012057 -0.0010859 -0.0006404 0.0000676 0.0011382 -0.0002358 -0.0007571 0.0002898 0.0010310 0.0000508 0.0006929 -0.0002056 0.0002909 0.0004854 0.0024166 -0.0003153 0.0009707 0.0001317 0.0011741 -0.0003498 0.0009074 0.0000848 0.0013433
0.0001574 0.0003339 0.0002144 0.0006734 0.0000314 0.0002713 0.0002661 0.0012727 0.0000811 0.0005723 0.0025632 -0.0043955 0.0010831 -0.0013742 0.0001399 0.0007784 0.0002423 0.0013243 0.0000980 0.0010825 0.0000570 0.0012170 -0.0010089 -0.0005949 0.0000677 0.0011465 -0.0002505 -0.0007931 0.0002884 0.0010473 0.0000526 0.0007024 -0.0002083 0.0002930 0.0004885 0.0024318 -0.0003235 0.0009581 0.0001291 0.0011742 -0.0003602 0.0008857 0.0000879 0.0013659
0.0001811 0.0003753 0.0001818 0.0007253 0.0000300 0.0002730 0.0002555 0.0013444 0.0000949 0.0005985 0.0028746 -0.0049234 0.0011795 -0.0014984 0.0001382 0.0008034 0.0002461 0.0013338 0.0000947 0.0010889 0.0000583 0.0012079 -0.0009374 -0.0005622 0.0000680 0.0011487 -0.0002656 -0.0008363 0.0002893 0.0010523 0.0000544 0.0007010 -0.0002103 0.0002806 0.0004952 0.0024412 -0.0003299 0.0009306 0.0001264 0.0011656 -0.0003678 0.0008549 0.0000913 0.0013750
0.0001983 0.0004103 0.0002374 0.0006948 0.0000377 0.0002519 0.0002610 0.0013967 0.0001048 0.0006210 0.0032089 -0.0054873 0.0012633 -0.0016065 0.0001302 0.0008212 0.0002486 0.0013357 0.0000931 0.0010939 0.0000608 0.0011848 -0.0008672 -0.0005310 0.0000687 0.0011454 -0.0002783 -0.0008786 0.0002880 0.0010422 0.0000541 0.0006861 -0.0002119 0.0002632 0.0005000 0.0024392 -0.0003329 0.0009087 0.0001243 0.0011496 -0.0003767 0.0008348 0.0000902 0.0013737
0.0002097 0.0004340 0.0002559 0.0006916 0.0000410 0.0002367 0.0002604 0.0014531 0.0001141 0.0006389 0.0035822 -0.0061034 0.0013367 -0.0017016 0.0001242 0.0008377 0.0002490 0.0013361 0.0000929 0.0011013 0.0000615 0.0011872 -0.0007960 -0.0004954 0.0000701 0.0011479 -0.0002862 -0.0009060 0.0002858 0.0010447 0.0000518 0.0006774 -0.0002133 0.0002613 0.0005014 0.0024460 -0.0003374 0.0009172 0.0001209 0.0011461 -0.0003868 0.0008364 0.0000826 0.0013753
0.0002225 0.0004532 0.0002825 0.0007028 0.0000428 0.0002247 0.0002679 0.0015057 0.0001235 0.0006586 0.0039428 -0.0067076 0.0014094 -0.0017960 0.0001283 0.0008432 0.0002471 0.0013393 0.0000908 0.0011114 0.0000592 0.0012086 -0.0007262 -0.0004494 0.0000714 0.0011549 -0.0002919 -0.0009234 0.0002840 0.0010556 0.0000494 0.0006756 -0.0002152 0.0002641 0.0005003 0.0024571 -0.0003430 0.0009356 0.0001175 0.0011511 -0.0003981 0.0008458 0.0000741 0.0013761
0.0002363 0.0004731 0.0002460 0.0007425 0.0000465 0.0002164 0.0002848 0.0015468 0.0001309 0.0006779 0.0042610 -0.0072510 0.0014731 -0.0018788 0.0001268 0.0008569 0.0002449 0.0013440 0.0000891 0.0011215 0.0000567 0.0012354 -0.0006640 -0.0004070 0.0000726 0.0011633 -0.0002978 -0.0009396 0.0002824 0.0010702 0.0000480 0.0006783 -0.0002167 0.0002710 0.0004980 0.0024688 -0.0003482 0.0009628 0.0001143 0.0011602 -0.0004101 0.0008595 0.0000652 0.0013836
0.0002543 0.0004914 0.0002654 0.0007584 0.0000413 0.0002126 0.0002871 0.0015957 0.0001378 0.0007000 0.0044729 -0.0076335 0.0015274 -0.0019495 0.0001451 0.0008633 0.0002426 0.0013494 0.0000867 0.0011327 0.0000535 0.0012613 -0.0006179 -0.0003678 0.0000734 0.0011720 -0.0003036 -0.0009579 0.0002811 0.0010835 0.0000454 0.0006803 -0.0002185 0.0002750 0.0004972 0.0024755 -0.0003528 0.0009742 0.0001122 0.0011635 -0.0004233 0.0008476 0.0000594 0.0013804
0.0002616 0.0005062 0.0002577 0.0007702 0.0000440 0.0001989 0.0002725 0.0016320 0.0001426 0.0007076 0.0045212 -0.0077299 0.0015649 -0.0019983 0.0001509 0.0008675 0.0002433 0.0013488 0.0000872 0.0011420 0.0000537 0.0012431 -0.0006074 -0.0003633 0.0000728 0.0011723 -0.0003061 -0.0009839 0.0002770 0.0010644 0.0000439 0.0006643 -0.0002186 0.0002657 0.0004983 0.0024635 -0.0003526 0.0009597 0.0001139 0.0011580 -0.0004304 0.0008289 0.0000534 0.0013565
0.0002605 0.0005006 0.0002359 0.0007746 0.0000442 0.0001794 0.0002418 0.0016345 0.0001452 0.0006912 0.0045299 -0.0077437 0.0015809 -0.0020194 0.0001511 0.0008672 0.0002437 0.0013445 0.0000916 0.0011492 0.0000542 0.0012139 -0.0006150 -0.0003846 0.0000723 0.0011672 -0.0003033 -0.0009973 0.0002685 0.0010325 0.0000405 0.0006429 -0.0002179 0.0002639 0.0004967 0.0024477 -0.0003514 0.0009686 0.0001140 0.0011549 -0.0004368 0.0008395 0.0000448 0.0013385
0.0002524 0.0004789 0.0002119 0.0007454 0.0000443 0.0001619 0.0002187 0.0016001 0.0001420 0.0006716 0.0045159 -0.0077194 0.0015775 -0.0020151 0.0001427 0.0008718 0.0002413 0.0013373 0.0000956 0.0011601 0.0000512 0.0012083 -0.0006403 -0.0004197 0.0000696 0.0011624 -0.0002956 -0.0009979 0.0002584 0.0010010 0.0000346 0.0006242 -0.0002163 0.0002708 0.0004893 0.0024252 -0.0003492 0.0009923 0.0001112 0.0011531 -0.0004416 0.0008633 0.0000347 0.0013216
0.0002377 0.0004366 0.0002282 0.0006881 0.0000312 0.0001616 0.0002108 0.0015335 0.0001334 0.0006501 0.0044219 -0.0075490 0.0015565 -0.0019879 0.0001423 0.0008626 0.0002371 0.0013296 0.0001004 0.0011721 0.0000470 0.0012085 -0.0006746 -0.0004560 0.0000663 0.0011583 -0.0002860 -0.0009893 0.0002482 0.0009702 0.0000297 0.0006105 -0.0002150 0.0002805 0.0004803 0.0024036 -0.0003472 0.0010208 0.0001085 0.0011527 -0.0004473 0.0008871 0.0000238 0.0013046
0.0002182 0.0003973 0.0002752 0.0006516 0.0000201 0.0001619 0.0001942 0.0014714 0.0001225 0.0006275 0.0042671 -0.0072737 0.0015321 -0.0019565 0.0001439 0.0008543 0.0002327 0.0013254 0.0001050 0.0011854 0.0000421 0.0012167 -0.0007175 -0.0004922 0.0000633 0.0011564 -0.0002750 -0.0009751 0.0002379 0.0009432 0.0000259 0.0006020 -0.0002141 0.0002929 0.0004704 0.0023839 -0.0003448 0.0010520 0.0001067 0.0011554 -0.0004519 0.0009131 0.0000123 0.0012846
0.0001953 0.0003502 0.0002645 0.0006063 0.0000121 0.0001573 0.0001782 0.0013970 0.0001097 0.0005996 0.0040043 -0.0068225 0.0014924 -0.0019052 0.0001365 0.0008455 0.0002290 0.0013215 0.0001096 0.0011986 0.0000372 0.0012243 -0.0007765 -0.0005326 0.0000607 0.0011539 -0.0002620 -0.0009552 0.0002286 0.0009155 0.0000215 0.0005955 -0.0002126 0.0003035 0.0004608 0.0023619 -0.0003421 0.0010859 0.0001027 0.0011596 -0.0004536 0.0009388 -0.0000003 0.0012608
0.0001688 0.0002913 0.0002083 0.0006553 0.0000034 0.0001598 0.0001425 0.0013136 0.0000947 0.0005696 0.0035376 -0.0060575 0.0014399 -0.0018374 0.0001242 0.0008389 0.0002249 0.0013181 0.0001144 0.0012106 0.0000336 0.0012318 -0.0008542 -0.0005781 0.0000586 0.0011490 -0.0002429 -0.0009196 0.0002179 0.0008849 0.0000216 0.0005940 -0.0002100 0.0003008 0.0004532 0.0023333 -0.0003352 0.0011034 0.0000982 0.0011486 -0.0004522 0.0009449 -0.0000110 0.0012167
0.0001421 0.0002182 0.0002065 0.0006009 -0.0000072 0.0001647 0.0001092 0.0011965 0.0000855 0.0005306 0.0030531 -0.0052654 0.0013888 -0.0017715 0.0001182 0.0008304 0.0002232 0.0013150 0.0001202 0.0012185 0.0000310 0.0012306 -0.0009136 -0.0006176 0.0000594 0.0011431 -0.0002197 -0.0008698 0.0002066 0.0008520 0.0000237 0.0005974 -0.0002063 0.0003060 0.0004430 0.0023050 -0.0003280 0.0011352 0.0000926 0.0011393 -0.0004493 0.0009742 -0.0000228 0.0011868
0.0001169 0.0001628 0.0001900 0.0005651 -0.0000067 0.0001665 0.0000733 0.0010783 0.0000752 0.0005031 0.0027368 -0.0047265 0.0013661 -0.0017424 0.0001043 0.0008351 0.0002187 0.0013090 0.0001223 0.0012256 0.0000255 0.0012363 -0.0009393 -0.0006400 0.0000623 0.0011392 -0.0001959 -0.0008085 0.0001944 0.0008211 0.0000255 0.0006052 -0.0002018 0.0003177 0.0004280 0.0022712 -0.0003219 0.0011717 0.0000854 0.0011296 -0.0004423 0.0010096 -0.0000338 0.0011651
0.0000862 0.0001097 0.0001716 0.0005355 -0.0000042 0.0001693 0.0000556 0.0009543 0.0000642 0.0004787 0.0024504 -0.0042370 0.0013480 -0.0017192 0.0000912 0.0008238 0.0002113 0.0013007 0.0001245 0.0012293 0.0000179 0.0012384 -0.0009541 -0.0006537 0.0000666 0.0011323 -0.0001683 -0.0007354 0.0001807 0.0007834 0.0000274 0.0006146 -0.0001971 0.0003310 0.0004099 0.0022284 -0.0003144 0.0012097 0.0000765 0.0011153 -0.0004359 0.0010472 -0.0000442 0.0011427
0.0000534 0.0000454 0.0001653 0.0005236 -0.0000063 0.0001764 0.0000173 0.0008286 0.0000560 0.0004513 0.0021556 -0.0037366 0.0013258 -0.0016908 0.0000802 0.0008085 0.0002043 0.0012904 0.0001261 0.0012318 0.0000089 0.0012433 -0.0009609 -0.0006691 0.0000700 0.0011231 -0.0001387 -0.0006573 0.0001659 0.0007449 0.0000295 0.0006271 -0.0001914 0.0003470 0.0003892 0.0021808 -0.0003073 0.0012473 0.0000668 0.0010980 -0.0004268 0.0010827 -0.0000543 0.0011197
0.0000150 -0.0000250 0.0001476 0.0004852 -0.0000112 0.0001791 -0.0000074 0.0006657 0.0000496 0.0004196 0.0018551 -0.0032294 0.0013044 -0.0016634 0.0000710 0.0007871 0.0001967 0.0012779 0.0001270 0.0012331 -0.0000005 0.0012423 -0.0009672 -0.0006911 0.0000726 0.0011089 -0.0001066 -0.0005741 0.0001499 0.0006997 0.0000320 0.0006388 -0.0001853 0.0003643 0.0003660 0.0021245 -0.0002997 0.0012819 0.0000550 0.0010760 -0.0004209 0.0011267 -0.0000671 0.0010916
-0.0000216 -0.0001037 0.0001007 0.0005085 -0.0000164 0.0001867 -0.0000382 0.0005082 0.0000419 0.0003886 0.0014581 -0.0025945 0.0012842 -0.0016376 0.0000566 0.0007659 0.0001880 0.0012640 0.0001275 0.0012325 -0.0000104 0.0012416 -0.0009391 -0.0006970 0.0000754 0.0010907 -0.0000751 -0.0004901 0.0001331 0.0006527 0.0000355 0.0006485 -0.0001783 0.0003736 0.0003436 0.0020598 -0.0002909 0.0013002 0.0000425 0.0010412 -0.0004122 0.0011591 -0.0000798 0.0010523
-0.0000578 -0.0001731 0.0000847 0.0004604 -0.0000166 0.0001891 -0.0000777 0.0003517 0.0000374 0.0003597 0.0010786 -0.0019945 0.0012866 -0.0016410 0.0000490 0.0007356 0.0001798 0.0012474 0.0001274 0.0012284 -0.0000206 0.0012348 -0.0008916 -0.0006907 0.0000773 0.0010695 -0.0000424 -0.0004054 0.0001163 0.0006009 0.0000381 0.0006582 -0.0001713 0.0003878 0.0003174 0.0019941 -0.0002813 0.0013298 0.0000285 0.0010076 -0.0004034 0.0012027 -0.0000925 0.0010241
-0.0000947 -0.0002387 0.0001365 0.0003548 -0.0000211 0.0001941 -0.0001178 0.0001803 0.0000299 0.0003296 0.0006915 -0.0013850 0.0012893 -0.0016449 0.0000276 0.0007135 0.0001700 0.0012303 0.0001263 0.0012232 -0.0000328 0.0012391 -0.0008413 -0.0006862 0.0000781 0.0010473 -0.0000093 -0.0003206 0.0000983 0.0005514 0.0000407 0.0006737 -0.0001643 0.0004119 0.0002883 0.0019294 -0.0002726 0.0013686 0.0000146 0.0009784 -0.0003958 0.0012493 -0.0001049 0.0009993
-0.0001276 -0.0003030 0.0001036 0.0003422 -0.0000245 0.0002092 -0.0001677 0.0000102 0.0000262 0.0002959 0.0002982 -0.0007700 0.0013004 -0.0016597 0.0000288 0.0006692 0.0001601 0.0012126 0.0001242 0.0012183 -0.0000461 0.0012425 -0.0007906 -0.0006780 0.0000783 0.0010228 0.0000248 -0.0002339 0.0000808 0.0005000 0.0000441 0.0006893 -0.0001573 0.0004358 0.0002584 0.0018619 -0.0002651 0.0014044 0.0000002 0.0009497 -0.0003875 0.0012903 -0.0001171 0.0009718
-0.0001613 -0.0003667 0.0000771 0.0003108 -0.0000320 0.0002249 -0.0002249 -0.0001635 0.0000187 0.0002637 -0.0000899 -0.0001643 0.0013057 -0.0016669 0.0000210 0.0006424 0.0001492 0.0011961 0.0001221 0.0012128 -0.0000596 0.0012486 -0.0007413 -0.0006687 0.0000781 0.0009966 0.0000583 -0.0001469 0.0000636 0.0004482 0.0000461 0.0007066 -0.0001514 0.0004599 0.0002288 0.0017935 -0.0002576 0.0014394 -0.0000137 0.0009198 -0.0003757 0.0013300 -0.0001283 0.0009425
-0.0001941 -0.0004226 0.0000749 0.0002812 -0.0000306 0.0002403 -0.0002857 -0.0003180 0.0000073 0.0002349 -0.0004405 0.0003883 0.0012971 -0.0016561 0.0000025 0.0006263 0.0001382 0.0011783 0.0001192 0.0012068 -0.0000724 0.0012497 -0.0006945 -0.0006586 0.0000777 0.0009686 0.0000906 -0.0000642 0.0000478 0.0003984 0.0000477 0.0007199 -0.0001462 0.0004833 0.0001996 0.0017248 -0.0002508 0.0014681 -0.0000279 0.0008874 -0.0003654 0.0013688 -0.0001400 0.0009129
-0.0002220 -0.0004743 0.0001187 0.0002351 -0.0000371 0.0002514 -0.0003246 -0.0004823 0.0000019 0.0002032 -0.0007254 0.0008491 0.0012905 -0.0016479 -0.0000084 0.0006073 0.0001286 0.0011589 0.0001150 0.0012002 -0.0000854 0.0012502 -0.0006418 -0.0006406 0.0000783 0.0009430 0.0001205 0.0000133 0.0000328 0.0003528 0.0000484 0.0007311 -0.0001423 0.0005038 0.0001733 0.0016592 -0.0002453 0.0014822 -0.0000425 0.0008493 -0.0003540 0.0013935 -0.0001493 0.0008746
-0.0002517 -0.0005140 0.0001220 0.0001729 -0.0000398 0.0002626 -0.0003522 -0.0006296 -0.0000041 0.0001767 -0.0009012 0.0011534 0.0012936 -0.0016521 -0.0000249 0.0005867 0.0001208 0.0011370 0.0001097 0.0011867 -0.0000950 0.0012172 -0.0005724 -0.0006065 0.0000820 0.0009124 0.0001461 0.0000819 0.0000197 0.0002989 0.0000508 0.0007284 -0.0001387 0.0005049 0.0001520 0.0015921 -0.0002398 0.0014749 -0.0000572 0.0007998 -0.0003433 0.0014211 -0.0001576 0.0008428
-0.0002689 -0.0005376 0.0001183 0.0001321 -0.0000422 0.0002694 -0.0003576 -0.0007429 -0.0000042 0.0001583 -0.0008864 0.0011671 0.0013073 -0.0016701 -0.0000306 0.0005641 0.0001141 0.0011196 0.0001038 0.0011710 -0.0001052 0.0012081 -0.0004767 -0.0005515 0.0000880 0.0008852 0.0001641 0.0001459 0.0000111 0.0002680 0.0000525 0.0007319 -0.0001368 0.0005141 0.0001329 0.0015391 -0.0002374 0.0014808 -0.0000729 0.0007548 -0.0003367 0.0014445 -0.0001642 0.0008267
-0.0002757 -0.0005488 0.0001151 0.0001236 -0.0000422 0.0002813 -0.0003574 -0.0008314 -0.0000033 0.0001522 -0.0008163 0.0010978 0.0013127 -0.0016772 -0.0000312 0.0005400 0.0001088 0.0011058 0.0000960 0.0011577 -0.0001147 0.0012090 -0.0003875 -0.0004917 0.0000928 0.0008611 0.0001779 0.0001998 0.0000044 0.0002443 0.0000549 0.0007407 -0.0001347 0.0005244 0.0001155 0.0014942 -0.0002356 0.0014848 -0.0000854 0.0007159 -0.0003324 0.0014593 -0.0001703 0.0008120
-0.0002837 -0.0005470 0.0001521 0.0001028 -0.0000470 0.0002960 -0.0003601 -0.0009170 -0.0000021 0.0001479 -0.0007387 0.0010196 0.0013213 -0.0016887 -0.0000330 0.0005190 0.0001038 0.0010948 0.0000890 0.0011439 -0.0001233 0.0012131 -0.0003059 -0.0004337 0.0000976 0.0008376 0.0001902 0.0002497 -0.0000010 0.0002232 0.0000578 0.0007513 -0.0001332 0.0005368 0.0001000 0.0014543 -0.0002346 0.0014924 -0.0000958 0.0006818 -0.0003290 0.0014724 -0.0001762 0.0007988
-0.0002892 -0.0005423 0.0001863 0.0000914 -0.0000428 0.0002920 -0.0003705 -0.0009868 -0.0000013 0.0001434 -0.0006618 0.0009416 0.0013334 -0.0017045 -0.0000373 0.0005059 0.0000992 0.0010837 0.0000812 0.0011301 -0.0001314 0.0012175 -0.0002313 -0.0003777 0.0001019 0.0008140 0.0002022 0.0002949 -0.0000067 0.0002049 0.0000601 0.0007611 -0.0001318 0.0005485 0.0000853 0.0014148 -0.0002336 0.0014991 -0.0001057 0.0006484 -0.0003250 0.0014865 -0.0001828 0.0007843
-0.0002896 -0.0005418 0.0001465 0.0001172 -0.0000413 0.0002937 -0.0003866 -0.0010571 -0.0000018 0.0001413 -0.0005859 0.0008649 0.0013480 -0.0017237 -0.0000430 0.0004935 0.0000943 0.0010707 0.0000742 0.0011165 -0.0001393 0.0012199 -0.0001617 -0.0003286 0.0001055 0.0007893 0.0002133 0.0003345 -0.0000115 0.0001846 0.0000624 0.0007681 -0.0001305 0.0005588 0.0000720 0.0013744 -0.0002328 0.0015029 -0.0001156 0.0006131 -0.0003212 0.0014970 -0.0001893 0.0007692
-0.0002867 -0.0005370 0.0001230 0.0001266 -0.0000401 0.0003049 -0.0004089 -0.0011179 0.0000013 0.0001356 -0.0005147 0.0007951 0.0013507 -0.0017274 -0.0000514 0.0004822 0.0000899 0.0010544 0.0000684 0.0010985 -0.0001454 0.0011973 -0.0000928 -0.0002811 0.0001092 0.0007587 0.0002232 0.0003688 -0.0000161 0.0001526 0.0000657 0.0007596 -0.0001297 0.0005502 0.0000633 0.0013217 -0.0002310 0.0014691 -0.0001247 0.0005601 -0.0003180 0.0014804 -0.0001940 0.0007307
-0.0002771 -0.0005221 0.0001806 0.0000507 -0.0000299 0.0002880 -0.0004236 -0.0011786 0.0000058 0.0001199 -0.0004378 0.0007168 0.0013441 -0.0017190 -0.0000504 0.0004694 0.0000883 0.0010341 0.0000638 0.0010773 -0.0001500 0.0011468 -0.0000317 -0.0002405 0.0001121 0.0007195 0.0002272 0.0003842 -0.0000178 0.0001116 0.0000645 0.0007327 -0.0001310 0.0005416 0.0000563 0.0012708 -0.0002319 0.0014351 -0.0001311 0.0005094 -0.0003176 0.0014707 -0.0002004 0.0007019
-0.0002635 -0.0004858 0.0001783 0.0000596 -0.0000215 0.0002729 -0.0004111 -0.0012136 0.0000051 0.0001081 -0.0003657 0.0006371 0.0013437 -0.0017187 -0.0000491 0.0004505 0.0000852 0.0010136 0.0000589 0.0010583 -0.0001551 0.0011251 0.0000152 -0.0002048 0.0001120 0.0006860 0.0002269 0.0003840 -0.0000190 0.0000838 0.0000601 0.0007066 -0.0001340 0.0005397 0.0000497 0.0012306 -0.0002349 0.0014153 -0.0001372 0.0004684 -0.0003218 0.0014615 -0.0002069 0.0006826
-0.0002497 -0.0004631 0.0001563 0.0000907 -0.0000213 0.0002643 -0.0003999 -0.0012280 0.0000049 0.0000976 -0.0003264 0.0005945 0.0013297 -0.0017007 -0.0000457 0.0004344 0.0000821 0.0009956 0.0000538 0.0010425 -0.0001585 0.0011148 0.0000478 -0.0001711 0.0001105 0.0006583 0.0002246 0.0003733 -0.0000175 0.0000689 0.0000558 0.0006842 -0.0001377 0.0005381 0.0000455 0.0012037 -0.0002383 0.0014002 -0.0001418 0.0004379 -0.0003315 0.0014534 -0.0002136 0.0006660
-0.0002363 -0.0004380 0.0001904 0.0000814 -0.0000282 0.0002571 -0.0003778 -0.0012461 0.0000044 0.0000892 -0.0002880 0.0005524 0.0013105 -0.0016761 -0.0000504 0.0004367 0.0000806 0.0009820 0.0000497 0.0010299 -0.0001615 0.0011137 0.0000622 -0.0001493 0.0001065 0.0006348 0.0002181 0.0003501 -0.0000141 0.0000639 0.0000509 0.0006624 -0.0001422 0.0005377 0.0000446 0.0011876 -0.0002437 0.0013871 -0.0001433 0.0004174 -0.0003422 0.0014425 -0.0002213 0.0006519
-0.0002184 -0.0004075 0.0002206 0.0000612 -0.0000245 0.0002380 -0.0003511 -0.0012505 0.0000000 0.0000797 -0.0002565 0.0005169 0.0012956 -0.0016569 -0.0000441 0.0004287 0.0000793 0.0009708 0.0000456 0.0010195 -0.0001630 0.0011108 0.0000641 -0.0001251 0.0001030 0.0006149 0.0002086 0.0003182 -0.0000082 0.0000629 0.0000468 0.0006389 -0.0001475 0.0005332 0.0000469 0.0011799 -0.0002494 0.0013731 -0.0001436 0.0004030 -0.0003540 0.0014293 -0.0002291 0.0006372
-0.0001980 -0.0003705 0.0002221 0.0000540 -0.0000246 0.0002247 -0.0003319 -0.0012322 -0.0000061 0.0000733 -0.0002292 0.0004850 0.0012673 -0.0016205 -0.0000387 0.0004308 0.0000792 0.0009622 0.0000419 0.0010105 -0.0001632 0.0011114 0.0000547 -0.0001004 0.0001002 0.0005998 0.0001962 0.0002799 -0.0000011 0.0000674 0.0000426 0.0006142 -0.0001533 0.0005210 0.0000546 0.0011775 -0.0002548 0.0013450 -0.0001413 0.0003871 -0.0003648 0.0013931 -0.0002336 0.0006121
-0.0001773 -0.0003324 0.0001740 0.0001021 -0.0000235 0.0002019 -0.0003120 -0.0012182 -0.0000113 0.0000585 -0.0001564 0.0004017 0.0012329 -0.0015760 -0.0000387 0.0004317 0.0000817 0.0009514 0.0000398 0.0009977 -0.0001597 0.0010729 0.0000052 -0.0001009 0.0000984 0.0005799 0.0001842 0.0002381 0.0000070 0.0000575 0.0000384 0.0005749 -0.0001599 0.0004968 0.0000666 0.0011750 -0.0002599 0.0013043 -0.0001362 0.0003692 -0.0003768 0.0013565 -0.0002370 0.0005826
-0.0001600 -0.0002994 0.0001801 0.0000865 -0.0000280 0.0001804 -0.0002700 -0.0012204 -0.0000194 0.0000362 -0.0000817 0.0003209 0.0011742 -0.0015002 -0.0000331 0.0004342 0.0000853 0.0009435 0.0000394 0.0009886 -0.0001558 0.0010536 -0.0000622 -0.0001113 0.0000969 0.0005648 0.0001705 0.0001957 0.0000162 0.0000585 0.0000340 0.0005391 -0.0001664 0.0004804 0.0000792 0.0011811 -0.0002660 0.0012798 -0.0001312 0.0003600 -0.0003894 0.0013311 -0.0002411 0.0005606
-0.0001405 -0.0002733 0.0001000 0.0001780 -0.0000260 0.0001550 -0.0002580 -0.0011896 -0.0000277 0.0000189 -0.0000086 0.0002386 0.0011095 -0.0014169 -0.0000178 0.0004275 0.0000889 0.0009343 0.0000386 0.0009809 -0.0001515 0.0010375 -0.0001380 -0.0001227 0.0000955 0.0005533 0.0001561 0.0001540 0.0000248 0.0000636 0.0000289 0.0005024 -0.0001729 0.0004610 0.0000921 0.0011870 -0.0002724 0.0012528 -0.0001264 0.0003514 -0.0004015 0.0013067 -0.0002470 0.0005413
-0.0001264 -0.0002471 0.0001309 0.0001426 -0.0000293 0.0001323 -0.0002198 -0.0011665 -0.0000355 0.0000014 0.0000628 0.0001572 0.0010342 -0.0013199 -0.0000102 0.0004367 0.0000917 0.0009282 0.0000383 0.0009738 -0.0001471 0.0010254 -0.0002176 -0.0001398 0.0000940 0.0005459 0.0001399 0.0001089 0.0000336 0.0000746 0.0000233 0.0004687 -0.0001797 0.0004441 0.0001058 0.0011970 -0.0002784 0.0012297 -0.0001204 0.0003468 -0.0004166 0.0012904 -0.0002534 0.0005263
-0.0001133 -0.0002181 0.0001260 0.0001355 -0.0000285 0.0001111 -0.0001760 -0.0011503 -0.0000428 -0.0000157 0.0001197 0.0000949 0.0009564 -0.0012197 -0.0000044 0.0004418 0.0000960 0.0009227 0.0000382 0.0009686 -0.0001420 0.0010116 -0.0003050 -0.0001592 0.0000928 0.0005392 0.0001243 0.0000623 0.0000418 0.0000878 0.0000184 0.0004345 -0.0001860 0.0004268 0.0001194 0.0012083 -0.0002845 0.0012042 -0.0001144 0.0003472 -0.0004328 0.0012763 -0.0002594 0.0005128
-0.0000960 -0.0001969 0.0001033 0.0001517 -0.0000318 0.0000781 -0.0001393 -0.0011275 -0.0000483 -0.0000323 0.0001511 0.0000623 0.0008884 -0.0011322 0.0000066 0.0004394 0.0001013 0.0009202 0.0000388 0.0009637 -0.0001371 0.0009997 -0.0003813 -0.0001724 0.0000922 0.0005360 0.0001095 0.0000204 0.0000497 0.0001008 0.0000141 0.0004035 -0.0001923 0.0004080 0.0001342 0.0012228 -0.0002900 0.0011802 -0.0001072 0.0003510 -0.0004464 0.0012580 -0.0002658 0.0005022
-0.0000851 -0.0001786 0.0000840 0.0001300 -0.0000371 0.0000588 -0.0000980 -0.0010980 -0.0000569 -0.0000437 0.0001613 0.0000539 0.0008238 -0.0010492 0.0000095 0.0004382 0.0001063 0.0009216 0.0000398 0.0009587 -0.0001302 0.0009762 -0.0004506 -0.0001874 0.0000913 0.0005306 0.0000959 -0.0000173 0.0000581 0.0001075 0.0000115 0.0003675 -0.0001979 0.0003782 0.0001510 0.0012311 -0.0002944 0.0011365 -0.0000982 0.0003490 -0.0004625 0.0012317 -0.0002714 0.0004858
-0.0000709 -0.0001589 0.0001136 0.0001327 -0.0000338 0.0000333 -0.0000561 -0.0010649 -0.0000610 -0.0000602 0.0001636 0.0000542 0.0007591 -0.0009662 0.0000120 0.0004475 0.0001145 0.0009252 0.0000437 0.0009541 -0.0001228 0.0009607 -0.0005132 -0.0002030 0.0000904 0.0005267 0.0000830 -0.0000496 0.0000671 0.0001183 0.0000080 0.0003400 -0.0002035 0.0003619 0.0001671 0.0012466 -0.0002999 0.0011111 -0.0000886 0.0003546 -0.0004769 0.0012126 -0.0002766 0.0004824
-0.0000541 -0.0001319 0.0000956 0.0001733 -0.0000373 0.0000157 -0.0000568 -0.0009889 -0.0000651 -0.0000695 0.0001531 0.0000633 0.0006966 -0.0008861 0.0000200 0.0004589 0.0001241 0.0009367 0.0000445 0.0009510 -0.0001151 0.0009597 -0.0005603 -0.0002010 0.0000887 0.0005255 0.0000698 -0.0000785 0.0000736 0.0001337 0.0000056 0.0003233 -0.0002108 0.0003487 0.0001802 0.0012624 -0.0003077 0.0010805 -0.0000818 0.0003604 -0.0004939 0.0011969 -0.0002804 0.0004845
-0.0000279 -0.0000824 0.0000708 0.0002132 -0.0000393 -0.0000015 -0.0000362 -0.0008948 -0.0000648 -0.0000671 0.0001232 0.0000902 0.0006596 -0.0008387 0.0000225 0.0004771 0.0001337 0.0009540 0.0000426 0.0009465 -0.0001067 0.0009586 -0.0005868 -0.0001900 0.0000871 0.0005259 0.0000568 -0.0001044 0.0000798 0.0001487 0.0000032 0.0003063 -0.0002179 0.0003379 0.0001916 0.0012739 -0.0003155 0.0010513 -0.0000774 0.0003649 -0.0005095 0.0011822 -0.0002846 0.0004922
-0.0000003 -0.0000434 0.0000678 0.0002294 -0.0000422 -0.0000172 -0.0000117 -0.0007963 -0.0000633 -0.0000647 0.0000812 0.0001297 0.0006250 -0.0007944 0.0000345 0.0004870 0.0001408 0.0009672 0.0000419 0.0009447 -0.0001000 0.0009557 -0.0006035 -0.0001767 0.0000858 0.0005280 0.0000449 -0.0001260 0.0000832 0.0001637 -0.0000004 0.0002911 -0.0002233 0.0003282 0.0002014 0.0012836 -0.0003223 0.0010191 -0.0000738 0.0003682 -0.0005248 0.0011693 -0.0002887 0.0005004
0.0000221 -0.0000003 0.0000325 0.0002959 -0.0000409 -0.0000245 0.0000252 -0.0007039 -0.0000609 -0.0000588 0.0000214 0.0001896 0.0005981 -0.0007600 0.0000320 0.0005107 0.0001484 0.0009845 0.0000410 0.0009444 -0.0000933 0.0009507 -0.0006076 -0.0001563 0.0000853 0.0005334 0.0000331 -0.0001435 0.0000868 0.0001787 -0.0000022 0.0002778 -0.0002285 0.0003176 0.0002115 0.0012955 -0.0003294 0.0009837 -0.0000696 0.0003717 -0.0005409 0.0011582 -0.0002917 0.0005095
0.0000448 0.0000443 0.0000139 0.0003186 -0.0000450 -0.0000331 0.0000633 -0.0006096 -0.0000568 -0.0000525 -0.0000385 0.0002471 0.0005681 -0.0007219 0.0000483 0.0005077 0.0001565 0.0010015 0.0000408 0.0009441 -0.0000868 0.0009431 -0.0006052 -0.0001293 0.0000853 0.0005396 0.0000214 -0.0001580 0.0000906 0.0001925 -0.0000042 0.0002648 -0.0002341 0.0003012 0.0002232 0.0013034 -0.0003364 0.0009322 -0.0000650 0.0003682 -0.0005558 0.0011334 -0.0002934 0.0005072
0.0000711 0.0000932 0.0000651 0.0003117 -0.0000369 -0.0000587 0.0000840 -0.0004967 -0.0000525 -0.0000411 -0.0000929 0.0002938 0.0005453 -0.0006928 0.0000568 0.0005205 0.0001678 0.0010207 0.0000402 0.0009423 -0.0000782 0.0009257 -0.0005870 -0.0000979 0.0000864 0.0005459 0.0000097 -0.0001713 0.0000945 0.0002066 -0.0000050 0.0002543 -0.0002398 0.0002888 0.0002351 0.0013167 -0.0003422 0.0008942 -0.0000597 0.0003695 -0.0005727 0.0011247 -0.0002953 0.0005174
0.0000938 0.0001419 0.0000128 0.0003881 -0.0000455 -0.0000679 0.0001164 -0.0003788 -0.0000459 -0.0000301 -0.0001471 0.0003392 0.0005273 -0.0006699 0.0000684 0.0005291 0.0001767 0.0010378 0.0000403 0.0009419 -0.0000714 0.0009180 -0.0005647 -0.0000634 0.0000869 0.0005540 -0.0000015 -0.0001814 0.0000972 0.0002241 -0.0000080 0.0002447 -0.0002444 0.0002826 0.0002440 0.0013282 -0.0003478 0.0008637 -0.0000570 0.0003736 -0.0005884 0.0011221 -0.0002981 0.0005357
0.0001200 0.0001826 -0.0000123 0.0004063 -0.0000433 -0.0000863 0.0001312 -0.0002590 -0.0000384 -0.0000156 -0.0001972 0.0003786 0.0005063 -0.0006432 0.0000666 0.0005498 0.0001838 0.0010541 0.0000396 0.0009435 -0.0000660 0.0009116 -0.0005347 -0.0000227 0.0000877 0.0005647 -0.0000123 -0.0001880 0.0000984 0.0002441 -0.0000116 0.0002366 -0.0002489 0.0002771 0.0002518 0.0013387 -0.0003534 0.0008337 -0.0000557 0.0003793 -0.0006049 0.0011249 -0.0003006 0.0005565
0.0001378 0.0002237 0.0000091 0.0003972 -0.0000453 -0.0000977 0.0001534 -0.0001326 -0.0000325 0.0000029 -0.0002336 0.0004020 0.0004927 -0.0006260 0.0000724 0.0005562 0.0001903 0.0010717 0.0000393 0.0009463 -0.0000617 0.0009096 -0.0004899 0.0000237 0.0000887 0.0005779 -0.0000237 -0.0001922 0.0000999 0.0002674 -0.0000148 0.0002302 -0.0002528 0.0002735 0.0002604 0.0013521 -0.0003595 0.0008040 -0.0000539 0.0003852 -0.0006181 0.0011299 -0.0003018 0.0005829
0.0001622 0.0002642 -0.0000124 0.0004341 -0.0000419 -0.0001097 0.0001702 0.0000006 -0.0000241 0.0000261 -0.0002247 0.0003468 0.0004826 -0.0006130 0.0000792 0.0005703 0.0001967 0.0010902 0.0000383 0.0009516 -0.0000572 0.0009074 -0.0004311 0.0000735 0.0000907 0.0005935 -0.0000345 -0.0001956 0.0001002 0.0002948 -0.0000184 0.0002274 -0.0002563 0.0002693 0.0002691 0.0013689 -0.0003647 0.0007738 -0.0000514 0.0003931 -0.0006288 0.0011378 -0.0003018 0.0006101
0.0001807 0.0003030 0.0000004 0.0004407 -0.0000455 -0.0001132 0.0001771 0.0001360 -0.0000152 0.0000509 -0.0001954 0.0002599 0.0004689 -0.0005956 0.0000786 0.0005916 0.0002030 0.0011097 0.0000377 0.0009576 -0.0000522 0.0009058 -0.0003687 0.0001201 0.0000932 0.0006104 -0.0000457 -0.0001996 0.0000996 0.0003231 -0.0000218 0.0002260 -0.0002595 0.0002653 0.0002784 0.0013879 -0.0003699 0.0007444 -0.0000489 0.0004027 -0.0006401 0.0011469 -0.0003013 0.0006428
0.0002017 0.0003383 0.0000228 0.0004535 -0.0000494 -0.0001160 0.0002010 0.0002671 -0.0000046 0.0000775 -0.0000815 0.0000415 0.0004684 -0.0005952 0.0000871 0.0005991 0.0002094 0.0011289 0.0000375 0.0009622 -0.0000467 0.0008903 -0.0002891 0.0001688 0.0000964 0.0006234 -0.0000577 -0.0002075 0.0001003 0.0003477 -0.0000230 0.0002198 -0.0002626 0.0002503 0.0002904 0.0014028 -0.0003736 0.0006986 -0.0000450 0.0004030 -0.0006512 0.0011445 -0.0002987 0.0006748
0.0002261 0.0003844 0.0000811 0.0004238 -0.0000572 -0.0001164 0.0002180 0.0004061 0.0000085 0.0001065 0.0002992 -0.0005639 0.0004914 -0.0006247 0.0000866 0.0006316 0.0002185 0.0011508 0.0000360 0.0009654 -0.0000401 0.0008833 -0.0001696 0.0002227 0.0001001 0.0006401 -0.0000736 -0.0002236 0.0001031 0.0003804 -0.0000240 0.0002231 -0.0002657 0.0002411 0.0003026 0.0014223 -0.0003788 0.0006596 -0.0000424 0.0004079 -0.0006632 0.0011382 -0.0002942 0.0007204
0.0002533 0.0004402 0.0000434 0.0004788 -0.0000603 -0.0001206 0.0002405 0.0005596 0.0000258 0.0001425 0.0008652 -0.0015543 0.0005748 -0.0007313 0.0000995 0.0006464 0.0002262 0.0011727 0.0000321 0.0009669 -0.0000346 0.0008822 -0.0000022 0.0003010 0.0001046 0.0006605 -0.0000948 -0.0002483 0.0001035 0.0004181 -0.0000244 0.0002318 -0.0002702 0.0002349 0.0003134 0.0014418 -0.0003859 0.0006176 -0.0000396 0.0004131 -0.0006786 0.0011262 -0.0002873 0.0007775
0.0002803 0.0005046 0.0000827 0.0004643 -0.0000658 -0.0001292 0.0002604 0.0007510 0.0000452 0.0001818 0.0008502 -0.0022795 0.0007252 -0.0009244 0.0001099 0.0006726 0.0002335 0.0011959 0.0000260 0.0009662 -0.0000299 0.0008819 0.0002037 0.0004151 0.0001105 0.0006832 -0.0001206 -0.0002789 0.0001038 0.0004564 -0.0000243 0.0002442 -0.0002749 0.0002315 0.0003238 0.0014615 -0.0003935 0.0005747 -0.0000366 0.0004218 -0.0006930 0.0011123 -0.0002793 0.0008410
0.0003134 0.0005637 0.0000585 0.0005314 -0.0000689 -0.0001450 0.0002805 0.0009450 0.0000603 0.0002263 0.0005819 -0.0034348 0.0009193 -0.0011745 0.0001086 0.0007090 0.0002414 0.0012202 0.0000185 0.0009647 -0.0000251 0.0008842 0.0004197 0.0005503 0.0001173 0.0007076 -0.0001468 -0.0003116 0.0001029 0.0004944 -0.0000229 0.0002606 -0.0002786 0.0002283 0.0003333 0.0014826 -0.0004017 0.0005315 -0.0000335 0.0004318 -0.0007065 0.0010934 -0.0002708 0.0009080
0.0003484 0.0006209 0.0001097 0.0005583 -0.0000748 -0.0001691 0.0002888 0.0011673 0.0000796 0.0002689 0.0003022 -0.0046725 0.0011844 -0.0015189 0.0001017 0.0007498 0.0002494 0.0012450 0.0000094 0.0009609 -0.0000211 0.0008888 0.0006467 0.0007509 0.0001251 0.0007347 -0.0001763 -0.0003494 0.0001019 0.0005348 -0.0000201 0.0002826 -0.0002821 0.0002241 0.0003429 0.0015044 -0.0004092 0.0004915 -0.0000298 0.0004405 -0.0007230 0.0010727 -0.0002615 0.0009771
0.0003739 0.0006794 0.0000822 0.0005832 -0.0000747 -0.0001911 0.0002819 0.0013934 0.0000975 0.0003078 0.0000107 -0.0059993 0.0014690 -0.0018914 0.0001060 0.0007800 0.0002563 0.0012675 0.0000005 0.0009568 -0.0000165 0.0008923 0.0008608 0.0009588 0.0001325 0.0007589 -0.0002055 -0.0003890 0.0001008 0.0005713 -0.0000171 0.0003063 -0.0002840 0.0002206 0.0003520 0.0015242 -0.0004160 0.0004510 -0.0000270 0.0004467 -0.0007406 0.0010527 -0.0002506 0.0010470
0.0004027 0.0007380 0.0000548 0.0006219 -0.0000694 -0.0002266 0.0002781 0.0016180 0.0001165 0.0003474 -0.0002965 -0.0074239 0.0018189 -0.0023546 0.0001112 0.0008133 0.0002633 0.0012876 -0.0000093 0.0009508 -0.0000124 0.0008941 0.0010657 0.0012050 0.0001403 0.0007817 -0.0002355 -0.0004352 0.0000995 0.0006055 -0.0000123 0.0003318 -0.0002859 0.0002166 0.0003608 0.0015424 -0.0004221 0.0004107 -0.0000247 0.0004503 -0.0007547 0.0010300 -0.0002400 0.0011158
0.0004323 0.0007957 -0.0000086 0.0006964 -0.0000690 -0.0002602 0.0002787 0.0018336 0.0001382 0.0003824 -0.0006216 -0.0089605 0.0021923 -0.0028534 0.0001227 0.0008330 0.0002683 0.0013046 -0.0000207 0.0009442 -0.0000092 0.0008960 0.0012692 0.0014677 0.0001472 0.0008034 -0.0002655 -0.0004841 0.0000965 0.0006380 -0.0000079 0.0003560 -0.0002875 0.0002115 0.0003677 0.0015551 -0.0004269 0.0003724 -0.0000236 0.0004510 -0.0007680 0.0010057 -0.0002292 0.0011804
0.0004564 0.0008422 -0.0000036 0.0006995 -0.0000641 -0.0002984 0.0002985 0.0020092 0.0001568 0.0004142 -0.0009506 -0.0106416 0.0025768 -0.0033716 0.0001324 0.0008472 0.0002681 0.0013078 -0.0000298 0.0009376 -0.0000083 0.0008904 0.0014578 0.0017045 0.0001528 0.0008208 -0.0002928 -0.0005309 0.0000930 0.0006664 -0.0000056 0.0003691 -0.0002864 0.0002085 0.0003722 0.0015590 -0.0004287 0.0003442 -0.0000230 0.0004478 -0.0007787 0.0009860 -0.0002190 0.0012414
0.0004694 0.0008599 0.0000237 0.0006603 -0.0000666 -0.0003338 0.0003011 0.0021479 0.0001689 0.0004318 -0.0012595 -0.0125238 0.0028971 -0.0038066 0.0001387 0.0008595 0.0002652 0.0013013 -0.0000353 0.0009323 -0.0000092 0.0008810 0.0016360 0.0019034 0.0001559 0.0008309 -0.0003180 -0.0005750 0.0000873 0.0006919 -0.0000047 0.0003821 -0.0002854 0.0002056 0.0003752 0.0015615 -0.0004296 0.0003183 -0.0000235 0.0004425 -0.0007896 0.0009718 -0.0002089 0.0012971
0.0004791 0.0008820 -0.0000226 0.0006650 -0.0000637 -0.0003753 0.0002978 0.0022814 0.0001800 0.0004465 -0.0015665 -0.0146180 0.0032037 -0.0042258 0.0001382 0.0008710 0.0002642 0.0012992 -0.0000416 0.0009262 -0.0000091 0.0008742 0.0018079 0.0020787 0.0001572 0.0008375 -0.0003416 -0.0006178 0.0000819 0.0007156 -0.0000028 0.0003951 -0.0002847 0.0002027 0.0003779 0.0015617 -0.0004295 0.0002957 -0.0000229 0.0004351 -0.0007977 0.0009554 -0.0001990 0.0013506
0.0004905 0.0008945 -0.0000279 0.0006527 -0.0000636 -0.0004223 0.0002786 0.0023943 0.0001872 0.0004547 -0.0018434 -0.0169980 0.0034614 -0.0045787 0.0001414 0.0008766 0.0002622 0.0012931 -0.0000469 0.0009202 -0.0000086 0.0008659 0.0019730 0.0022195 0.0001573 0.0008410 -0.0003638 -0.0006605 0.0000752 0.0007337 -0.0000026 0.0004067 -0.0002839 0.0002010 0.0003800 0.0015566 -0.0004280 0.0002779 -0.0000227 0.0004253 -0.0008047 0.0009375 -0.0001901 0.0013998
0.0004979 0.0008984 -0.0000094 0.0005995 -0.0000679 -0.0004623 0.0002644 0.0024796 0.0001936 0.0004559 -0.0021187 -0.0196796 0.0037037 -0.0049123 0.0001362 0.0008905 0.0002604 0.0012881 -0.0000524 0.0009135 -0.0000077 0.0008575 0.0021318 0.0023367 0.0001567 0.0008430 -0.0003845 -0.0007014 0.0000683 0.0007504 -0.0000012 0.0004183 -0.0002823 0.0002052 0.0003796 0.0015550 -0.0004255 0.0002786 -0.0000224 0.0004230 -0.0008155 0.0009373 -0.0001834 0.0014594
0.0004991 0.0008948 -0.0000373 0.0006487 -0.0000729 -0.0004946 0.0002801 0.0025371 0.0001970 0.0004531 -0.0023894 -0.0227340 0.0039360 -0.0052340 0.0001399 0.0008916 0.0002548 0.0012844 -0.0000581 0.0009134 -0.0000104 0.0008859 0.0022742 0.0024357 0.0001540 0.0008515 -0.0004051 -0.0007397 0.0000595 0.0007787 -0.0000025 0.0004430 -0.0002802 0.0002283 0.0003740 0.0015609 -0.0004254 0.0003082 -0.0000234 0.0004356 -0.0008245 0.0009468 -0.0001773 0.0015285
0.0005006 0.0008884 0.0000082 0.0005708 -0.0000819 -0.0005134 0.0002809 0.0025879 0.0001954 0.0004583 -0.0026410 -0.0262859 0.0041449 -0.0055248 0.0001404 0.0008923 0.0002488 0.0012849 -0.0000654 0.0009133 -0.0000126 0.0009062 0.0024116 0.0025189 0.0001515 0.0008595 -0.0004256 -0.0007805 0.0000515 0.0008031 -0.0000004 0.0004674 -0.0002779 0.0002387 0.0003719 0.0015620 -0.0004244 0.0003080 -0.0000219 0.0004413 -0.0008346 0.0009332 -0.0001693 0.0015761
0.0004945 0.0008873 0.0000843 0.0005267 -0.0000842 -0.0005445 0.0002777 0.0026431 0.0001939 0.0004559 -0.0028562 -0.0305063 0.0043315 -0.0057857 0.0001416 0.0009016 0.0002464 0.0012861 -0.0000710 0.0009108 -0.0000127 0.0009086 0.0025399 0.0025839 0.0001495 0.0008630 -0.0004471 -0.0008253 0.0000453 0.0008189 0.0000028 0.0004867 -0.0002755 0.0002427 0.0003716 0.0015594 -0.0004224 0.0002986 -0.0000187 0.0004415 -0.0008405 0.0009097 -0.0001589 0.0016199
0.0004980 0.0008839 0.0000645 0.0005434 -0.0000870 -0.0005745 0.0002738 0.0026872 0.0001952 0.0004456 -0.0030122 -0.0356595 0.0044973 -0.0060185 0.0001386 0.0009178 0.0002452 0.0012862 -0.0000763 0.0009059 -0.0000121 0.0009026 0.0026541 0.0026246 0.0001465 0.0008615 -0.0004710 -0.0008777 0.0000383 0.0008266 0.0000050 0.0005013 -0.0002735 0.0002440 0.0003711 0.0015490 -0.0004195 0.0002822 -0.0000162 0.0004356 -0.0008455 0.0008795 -0.0001473 0.0016587
0.0004946 0.0008806 0.0000434 0.0005264 -0.0000906 -0.0006116 0.0002819 0.0027012 0.0001925 0.0004292 -0.0032118 -0.0418528 0.0046528 -0.0062378 0.0001442 0.0009082 0.0002443 0.0012846 -0.0000810 0.0008980 -0.0000103 0.0008887 0.0027562 0.0026595 0.0001434 0.0008542 -0.0004951 -0.0009324 0.0000310 0.0008258 0.0000080 0.0005106 -0.0002715 0.0002439 0.0003706 0.0015343 -0.0004162 0.0002606 -0.0000151 0.0004242 -0.0008518 0.0008420 -0.0001354 0.0016967
0.0004968 0.0008791 -0.0000110 0.0005552 -0.0000964 -0.0006439 0.0002917 0.0027100 0.0001911 0.0004114 -0.0032335 -0.0499432 0.0047881 -0.0064291 0.0001458 0.0009112 0.0002443 0.0012825 -0.0000861 0.0008883 -0.0000090 0.0008740 0.0028535 0.0026946 0.0001399 0.0008466 -0.0005222 -0.0009907 0.0000233 0.0008240 0.0000114 0.0005212 -0.0002698 0.0002444 0.0003705 0.0015166 -0.0004131 0.0002333 -0.0000132 0.0004096 -0.0008590 0.0007974 -0.0001219 0.0017324
0.0004971 0.0008787 -0.0000419 0.0005664 -0.0001057 -0.0006722 0.0002864 0.0027268 0.0001904 0.0003905 -0.0032943 -0.0610175 0.0049124 -0.0066055 0.0001398 0.0009194 0.0002449 0.0012816 -0.0000912 0.0008797 -0.0000070 0.0008717 0.0029391 0.0027282 0.0001361 0.0008432 -0.0005500 -0.0010486 0.0000151 0.0008234 0.0000133 0.0005398 -0.0002668 0.0002620 0.0003664 0.0015066 -0.0004112 0.0002402 -0.0000135 0.0004094 -0.0008656 0.0007736 -0.0001098 0.0017843
0.0004893 0.0008602 -0.0000431 0.0005553 -0.0001062 -0.0006986 0.0002937 0.0027154 0.0001881 0.0003716 -0.0057869 -0.0739361 0.0049921 -0.0067194 0.0001428 0.0009044 0.0002401 0.0012821 -0.0000960 0.0008769 -0.0000086 0.0009051 0.0030015 0.0027716 0.0001333 0.0008479 -0.0005724 -0.0010909 0.0000030 0.0008241 0.0000184 0.0005768 -0.0002583 0.0003035 0.0003554 0.0014993 -0.0004032 0.0002880 -0.0000182 0.0004088 -0.0008715 0.0007571 -0.0001006 0.0018320
0.0004582 0.0007936 -0.0000014 0.0005067 -0.0001090 -0.0007237 0.0002588 0.0026308 0.0001765 0.0003450 -0.0058458 -0.0720322 0.0049399 -0.0066463 0.0001244 0.0008945 0.0002351 0.0012826 -0.0000959 0.0008795 -0.0000112 0.0009233 0.0029439 0.0026906 0.0001272 0.0008422 -0.0005792 -0.0011247 -0.0000138 0.0007991 0.0000230 0.0006028 -0.0002458 0.0003371 0.0003431 0.0014700 -0.0003898 0.0003168 -0.0000188 0.0004062 -0.0008645 0.0007340 -0.0000951 0.0018344
0.0004211 0.0007115 -0.0000615 0.0005483 -0.0001009 -0.0007458 0.0002268 0.0024469 0.0001588 0.0002967 -0.0087058 -0.0578605 0.0047997 -0.0064493 0.0001202 0.0008609 0.0002282 0.0012741 -0.0000921 0.0008833 -0.0000126 0.0009197 0.0028023 0.0025545 0.0001204 0.0008261 -0.0005696 -0.0011181 -0.0000336 0.0007556 0.0000254 0.0006122 -0.0002328 0.0003584 0.0003265 0.0014218 -0.0003742 0.0003406 -0.0000197 0.0003945 -0.0008553 0.0007205 -0.0000923 0.0018177
0.0003793 0.0006319 -0.0000210 0.0004697 -0.0001032 -0.0007443 0.0001788 0.0022644 0.0001411 0.0002477 -0.0085721 -0.0450063 0.0046174 -0.0061940 0.0001072 0.0008343 0.0002188 0.0012548 -0.0000872 0.0008835 -0.0000166 0.0009043 0.0026372 0.0023983 0.0001139 0.0008036 -0.0005566 -0.0011068 -0.0000512 0.0007097 0.0000273 0.0006166 -0.0002197 0.0003665 0.0003097 0.0013680 -0.0003567 0.0003622 -0.0000235 0.0003717 -0.0008414 0.0007033 -0.0000911 0.0017836
0.0003322 0.0005510 -0.0000778 0.0004567 -0.0000914 -0.0007410 0.0001327 0.0020381 0.0001209 0.0001973 -0.0078598 -0.0368822 0.0043434 -0.0058106 0.0001087 0.0007839 0.0002086 0.0012310 -0.0000801 0.0008830 -0.0000194 0.0008850 0.0024820 0.0021916 0.0001063 0.0007743 -0.0005337 -0.0010706 -0.0000683 0.0006568 0.0000283 0.0006151 -0.0002070 0.0003773 0.0002905 0.0013045 -0.0003385 0.0003784 -0.0000302 0.0003392 -0.0008251 0.0006887 -0.0000910 0.0017406
0.0002859 0.0004768 -0.0000492 0.0004093 -0.0000970 -0.0007210 0.0001132 0.0017917 0.0001046 0.0001521 -0.0071417 -0.0308989 0.0040838 -0.0054489 0.0001061 0.0007417 0.0001996 0.0012045 -0.0000735 0.0008792 -0.0000232 0.0008606 0.0023368 0.0019756 0.0000980 0.0007416 -0.0005048 -0.0010226 -0.0000865 0.0006015 0.0000286 0.0006066 -0.0001955 0.0003866 0.0002694 0.0012339 -0.0003214 0.0003897 -0.0000363 0.0003011 -0.0008080 0.0006727 -0.0000931 0.0016874
0.0002387 0.0003890 -0.0000193 0.0003734 -0.0001021 -0.0006909 0.0000820 0.0015185 0.0000892 0.0001020 -0.0064228 -0.0262104 0.0037657 -0.0050061 0.0000955 0.0006966 0.0001896 0.0011794 -0.0000655 0.0008766 -0.0000271 0.0008560 0.0021975 0.0017067 0.0000890 0.0007099 -0.0004738 -0.0009699 -0.0001037 0.0005527 0.0000277 0.0006093 -0.0001833 0.0004140 0.0002440 0.0011709 -0.0003047 0.0004416 -0.0000445 0.0002747 -0.0007910 0.0006816 -0.0000962 0.0016546
0.0001891 0.0003018 -0.0000249 0.0003457 -0.0001063 -0.0006552 0.0000313 0.0012594 0.0000726 0.0000622 -0.0057314 -0.0223663 0.0034204 -0.0045284 0.0000763 0.0006510 0.0001775 0.0011551 -0.0000577 0.0008760 -0.0000338 0.0008559 0.0020612 0.0014331 0.0000808 0.0006804 -0.0004357 -0.0008951 -0.0001204 0.0005035 0.0000290 0.0006172 -0.0001711 0.0004305 0.0002164 0.0011050 -0.0002883 0.0004812 -0.0000537 0.0002454 -0.0007752 0.0006969 -0.0001031 0.0016016
0.0001419 0.0002117 -0.0000238 0.0003173 -0.0001189 -0.0006059 -0.0000225 0.0010205 0.0000599 0.0000306 -0.0050855 -0.0191319 0.0030760 -0.0040548 0.0000541 0.0006216 0.0001676 0.0011335 -0.0000518 0.0008732 -0.0000399 0.0008480 0.0019604 0.0012197 0.0000757 0.0006511 -0.0003964 -0.0008124 -0.0001344 0.0004545 0.0000329 0.0006240 -0.0001605 0.0004404 0.0001922 0.0010399 -0.0002717 0.0005124 -0.0000604 0.0002128 -0.0007584 0.0007124 -0.0001125 0.0015377
0.0000895 0.0001463 -0.0000471 0.0003301 -0.0001154 -0.0005723 -0.0000576 0.0008041 0.0000502 0.0000050 -0.0044756 -0.0163357 0.0027716 -0.0036398 0.0000334 0.0005882 0.0001588 0.0011117 -0.0000470 0.0008666 -0.0000455 0.0008383 0.0018563 0.0010385 0.0000734 0.0006235 -0.0003574 -0.0007283 -0.0001469 0.0004035 0.0000384 0.0006306 -0.0001503 0.0004472 0.0001692 0.0009736 -0.0002561 0.0005388 -0.0000647 0.0001802 -0.0007428 0.0007166 -0.0001226 0.0014679
0.0000479 0.0000861 -0.0000255 0.0003416 -0.0001085 -0.0005399 -0.0000953 0.0006114 0.0000443 -0.0000166 -0.0038889 -0.0138912 0.0024832 -0.0032492 0.0000316 0.0005466 0.0001513 0.0010887 -0.0000415 0.0008547 -0.0000507 0.0008219 0.0017741 0.0009080 0.0000747 0.0005970 -0.0003166 -0.0006260 -0.0001577 0.0003475 0.0000439 0.0006347 -0.0001404 0.0004507 0.0001470 0.0009069 -0.0002414 0.0005615 -0.0000700 0.0001443 -0.0007355 0.0007154 -0.0001387 0.0013895
0.0000095 0.0000341 -0.0000349 0.0003459 -0.0001014 -0.0005033 -0.0000827 0.0004478 0.0000439 -0.0000282 -0.0031817 -0.0119837 0.0022448 -0.0029299 0.0000263 0.0005059 0.0001451 0.0010661 -0.0000365 0.0008392 -0.0000553 0.0008070 0.0017273 0.0008710 0.0000815 0.0005721 -0.0002741 -0.0004907 -0.0001656 0.0002990 0.0000507 0.0006369 -0.0001305 0.0004504 0.0001263 0.0008425 -0.0002273 0.0005847 -0.0000761 0.0001073 -0.0007361 0.0007127 -0.0001609 0.0013145
-0.0000312 -0.0000153 -0.0000028 0.0003431 -0.0000930 -0.0004710 -0.0001009 0.0003450 0.0000462 -0.0000316 -0.0023541 -0.0105186 0.0020306 -0.0026437 0.0000053 0.0004863 0.0001397 0.0010430 -0.0000329 0.0008221 -0.0000586 0.0007942 0.0016921 0.0008873 0.0000916 0.0005500 -0.0002319 -0.0003502 -0.0001707 0.0002533 0.0000583 0.0006425 -0.0001203 0.0004447 0.0001076 0.0007832 -0.0002131 0.0006113 -0.0000818 0.0000704 -0.0007391 0.0007058 -0.0001837 0.0012429
-0.0000770 -0.0000832 0.0000337 0.0002432 -0.0000915 -0.0004384 -0.0001220 0.0002102 0.0000451 -0.0000400 -0.0018262 -0.0088088 0.0018450 -0.0023974 -0.0000145 0.0004505 0.0001348 0.0010147 -0.0000284 0.0008000 -0.0000603 0.0007616 0.0016381 0.0008803 0.0001007 0.0005191 -0.0001894 -0.0002201 -0.0001723 0.0001960 0.0000680 0.0006328 -0.0001097 0.0004203 0.0000930 0.0007108 -0.0001974 0.0005990 -0.0000867 0.0000134 -0.0007375 0.0006668 -0.0002054 0.0011448
-0.0001172 -0.0001381 -0.0000043 0.0002678 -0.0000754 -0.0004243 -0.0001369 0.0000908 0.0000522 -0.0000570 -0.0011989 -0.0074416 0.0016705 -0.0021664 -0.0000289 0.0004207 0.0001315 0.0009794 -0.0000240 0.0007732 -0.0000615 0.0007248 0.0016049 0.0009223 0.0001110 0.0004862 -0.0001485 -0.0000904 -0.0001742 0.0001400 0.0000758 0.0006204 -0.0001005 0.0004029 0.0000765 0.0006410 -0.0001828 0.0006074 -0.0000919 -0.0000406 -0.0007355 0.0006585 -0.0002299 0.0010638
-0.0001506 -0.0001919 -0.0000537 0.0002777 -0.0000771 -0.0003917 -0.0001598 -0.0000237 0.0000565 -0.0000702 -0.0006764 -0.0060737 0.0015272 -0.0019772 -0.0000361 0.0003780 0.0001268 0.0009437 -0.0000199 0.0007465 -0.0000636 0.0007056 0.0015643 0.0009666 0.0001208 0.0004547 -0.0001054 0.0000418 -0.0001746 0.0000869 0.0000837 0.0006115 -0.0000914 0.0003899 0.0000604 0.0005775 -0.0001682 0.0006271 -0.0000948 -0.0000843 -0.0007329 0.0006639 -0.0002578 0.0009775
-0.0001943 -0.0002460 -0.0000214 0.0002299 -0.0000698 -0.0003758 -0.0001748 -0.0001554 0.0000561 -0.0000820 -0.0003099 -0.0045951 0.0014207 -0.0018372 -0.0000510 0.0003358 0.0001219 0.0009068 -0.0000149 0.0007195 -0.0000658 0.0006887 0.0015078 0.0010065 0.0001314 0.0004234 -0.0000571 0.0001827 -0.0001746 0.0000352 0.0000929 0.0006031 -0.0000808 0.0003781 0.0000439 0.0005172 -0.0001535 0.0006525 -0.0000952 -0.0001199 -0.0007288 0.0006819 -0.0002872 0.0008894
-0.0002328 -0.0003084 -0.0000093 0.0001826 -0.0000724 -0.0003438 -0.0002249 -0.0002570 0.0000587 -0.0000976 0.0000150 -0.0031676 0.0013319 -0.0017209 -0.0000612 0.0002970 0.0001178 0.0008695 -0.0000097 0.0006939 -0.0000682 0.0006773 0.0014481 0.0010443 0.0001421 0.0003952 -0.0000072 0.0003279 -0.0001724 -0.0000139 0.0001016 0.0005968 -0.0000696 0.0003688 0.0000276 0.0004549 -0.0001390 0.0006829 -0.0000932 -0.0001531 -0.0007204 0.0007085 -0.0003149 0.0008008
-0.0002763 -0.0003681 0.0000170 0.0001193 -0.0000645 -0.0003159 -0.0002589 -0.0003672 0.0000611 -0.0001143 0.0003184 -0.0018468 0.0012571 -0.0016233 -0.0000713 0.0002531 0.0001125 0.0008297 -0.0000039 0.0006682 -0.0000706 0.0006627 0.0013879 0.0010798 0.0001525 0.0003643 0.0000456 0.0004757 -0.0001689 -0.0000662 0.0001102 0.0005863 -0.0000580 0.0003580 0.0000108 0.0003890 -0.0001237 0.0007154 -0.0000920 -0.0001878 -0.0007099 0.0007448 -0.0003434 0.0007078
-0.0003205 -0.0004264 0.0000597 0.0000565 -0.0000478 -0.0002996 -0.0002981 -0.0004780 0.0000626 -0.0001317 0.0006177 -0.0005890 0.0011843 -0.0015285 -0.0000744 0.0001989 0.0001072 0.0007870 0.0000034 0.0006396 -0.0000723 0.0006317 0.0013249 0.0011054 0.0001622 0.0003272 0.0000998 0.0006223 -0.0001644 -0.0001284 0.0001198 0.0005640 -0.0000471 0.0003303 -0.0000030 0.0003108 -0.0001075 0.0007162 -0.0000903 -0.0002372 -0.0006966 0.0007560 -0.0003712 0.0005860
-0.0003587 -0.0004753 0.0000670 0.0000048 -0.0000476 -0.0002763 -0.0003490 -0.0005753 0.0000644 -0.0001616 0.0008977 0.0006120 0.0011313 -0.0014595 -0.0000718 0.0001459 0.0001061 0.0007398 0.0000126 0.0006061 -0.0000715 0.0005670 0.0012384 0.0010988 0.0001688 0.0002780 0.0001525 0.0007596 -0.0001567 -0.0001984 0.0001256 0.0005159 -0.0000410 0.0002812 -0.0000106 0.0002272 -0.0000956 0.0006801 -0.0000829 -0.0002880 -0.0006825 0.0007716 -0.0003979 0.0004569
-0.0003747 -0.0004862 0.0000221 0.0000263 -0.0000445 -0.0002642 -0.0003536 -0.0006102 0.0000672 -0.0001842 0.0001907 0.0016484 0.0011659 -0.0015052 -0.0000758 0.0001131 0.0001061 0.0006923 0.0000189 0.0005685 -0.0000690 0.0005212 0.0012736 0.0012124 0.0001788 0.0002384 0.0001959 0.0008974 -0.0001409 -0.0002417 0.0001320 0.0004798 -0.0000386 0.0002407 -0.0000154 0.0001699 -0.0000881 0.0006717 -0.0000792 -0.0003356 -0.0006785 0.0007991 -0.0004228 0.0003682
