-0.0000000 -0.0000000 -0.0000000 -0.0000000 -0.0000000 -0.0000000 -0.0000000 -0.0000000 -0.0000000 -0.0000000 -0.0000000 -0.0000000 -0.0000000 -0.0000000 -0.0000000 -0.0000000 -0.0000000 -0.0000000 -0.0000000 -0.0000000 -0.0000000 -0.0000000 -0.0000000 -0.0000000 -0.0000000 -0.0000000 -0.0000000 -0.0000000 -0.0000000 -0.0000000 -0.0000000 -0.0000000 -0.0000000 -0.0000000 -0.0000000 -0.0000000 -0.0000000 -0.0000000 -0.0000000 -0.0000000 -0.0000000 -0.0000000 -0.0000000 -0.0000000
-0.0000000 -0.0000000 -0.0000000 -0.0000000 -0.0000000 -0.0000000 -0.0000000 -0.0000000 -0.0000000 -0.0000000 -0.0000000 -0.0000000 -0.0000000 -0.0000000 -0.0000000 -0.0000000 -0.0000000 -0.0000000 -0.0000000 -0.0000000 -0.0000000 -0.0000000 -0.0000000 -0.0000000 -0.0000000 -0.0000000 -0.0000000 -0.0000000 -0.0000000 -0.0000000 -0.0000000 -0.0000000 -0.0000000 -0.0000000 -0.0000000 -0.0000000 -0.0000000 -0.0000000 -0.0000000 -0.0000000 -0.0000000 -0.0000000 -0.0000000 -0.0000000
-0.0000000 -0.0000000 -0.0000000 -0.0000000 -0.0000000 -0.0000000 -0.0000000 -0.0000000 -0.0000000 -0.0000000 -0.0000000 -0.0000000 -0.0000000 -0.0000000 -0.0000000 -0.0000000 -0.0000000 -0.0000000 -0.0000000 -0.0000000 -0.0000000 -0.0000000 -0.0000000 -0.0000000 -0.0000000 -0.0000000 -0.0000000 -0.0000000 -0.0000000 -0.0000000 -0.0000000 -0.0000000 -0.0000000 -0.0000000 -0.0000000 -0.0000000 -0.0000000 -0.0000000 -0.0000000 -0.0000000 -0.0000000 -0.0000000 -0.0000000 -0.0000000
-0.0000000 -0.0000000 -0.0000000 -0.0000000 -0.0000000 -0.0000000 -0.0000000 -0.0000000 -0.0000000 -0.0000000 -0.0000000 -0.0000000 -0.0000000 -0.0000000 -0.0000000 -0.0000000 -0.0000000 -0.0000000 -0.0000000 -0.0000000 -0.0000000 -0.0000000 -0.0000000 -0.0000000 -0.0000000 -0.0000000 -0.0000000 -0.0000000 -0.0000000 -0.0000000 -0.0000000 -0.0000000 -0.0000000 -0.0000000 -0.0000000 -0.0000000 -0.0000000 -0.0000000 -0.0000000 -0.0000000 -0.0000000 -0.0000000 -0.0000000 -0.0000000
-0.0000000 -0.0000000 -0.0000000 -0.0000000 -0.0000000 -0.0000000 -0.0000000 -0.0000000 -0.0000000 -0.0000000 -0.0000000 -0.0000000 -0.0000000 -0.0000000 -0.0000000 -0.0000000 -0.0000000 -0.0000000 -0.0000000 -0.0000000 -0.0000000 -0.0000000 -0.0000000 -0.0000000 -0.0000000 -0.0000000 -0.0000000 -0.0000000 -0.0000000 -0.0000000 -0.0000000 -0.0000000 -0.0000000 -0.0000000 -0.0000000 -0.0000000 -0.0000000 -0.0000000 -0.0000000 -0.0000000 -0.0000000 -0.0000000 -0.0000000 -0.0000000
-0.0000000 -0.0000000 -0.0000000 -0.0000000 -0.0000000 -0.0000000 -0.0000000 -0.0000000 -0.0000000 -0.0000000 -0.0000000 -0.0000000 -0.0000000 -0.0000000 -0.0000000 -0.0000000 -0.0000000 -0.0000000 -0.0000000 -0.0000000 -0.0000000 -0.0000000 -0.0000000 -0.0000000 -0.0000000 -0.0000000 -0.0000000 -0.0000000 -0.0000000 -0.0000000 -0.0000000 -0.0000000 -0.0000000 -0.0000000 -0.0000000 -0.0000000 -0.0000000 -0.0000000 -0.0000000 -0.0000000 -0.0000000 -0.0000000 -0.0000000 -0.0000000
-0.0000000 -0.0000000 -0.0000000 -0.0000000 -0.0000000 -0.0000000 -0.0000000 -0.0000000 -0.0000000 -0.0000000 -0.0000000 -0.0000000 -0.0000000 -0.0000000 -0.0000000 -0.0000000 -0.0000000 -0.0000000 -0.0000000 -0.0000000 -0.0000000 -0.0000000 -0.0000000 -0.0000000 -0.0000000 -0.0000000 -0.0000000 -0.0000000 -0.0000000 -0.0000000 -0.0000000 -0.0000000 -0.0000000 -0.0000000 -0.0000000 -0.0000000 -0.0000000 -0.0000000 -0.0000000 -0.0000000 -0.0000000 -0.0000000 -0.0000000 -0.0000000
-0.0000000 -0.0000000 -0.0000000 -0.0000000 -0.0000000 -0.0000000 -0.0000000 -0.0000000 -0.0000000 -0.0000000 -0.0000000 -0.0000000 -0.0000000 -0.0000000 -0.0000000 -0.0000000 -0.0000000 -0.0000000 -0.0000000 -0.0000000 -0.0000000 -0.0000000 -0.0000000 -0.0000000 -0.0000000 -0.0000000 -0.0000000 -0.0000000 -0.0000000 -0.0000000 -0.0000000 -0.0000000 -0.0000000 -0.0000000 -0.0000000 -0.0000000 -0.0000000 -0.0000000 -0.0000000 -0.0000000 -0.0000000 -0.0000000 -0.0000000 -0.0000000
-0.0000000 -0.0000000 -0.0000000 -0.0000000 -0.0000000 -0.0000000 -0.0000000 -0.0000000 -0.0000000 -0.0000000 -0.0000000 -0.0000000 -0.0000000 -0.0000000 -0.0000000 -0.0000000 -0.0000000 -0.0000000 -0.0000000 -0.0000000 -0.0000000 -0.0000000 -0.0000000 -0.0000000 -0.0000000 -0.0000000 -0.0000000 -0.0000000 -0.0000000 -0.0000000 -0.0000000 -0.0000000 -0.0000000 -0.0000000 -0.0000000 -0.0000000 -0.0000000 -0.0000000 -0.0000000 -0.0000000 -0.0000000 -0.0000000 -0.0000000 -0.0000000
-0.0000000 -0.0000000 -0.0000000 -0.0000000 -0.0000000 -0.0000000 -0.0000000 -0.0000000 -0.0000000 -0.0000000 -0.0000000 -0.0000000 -0.0000000 -0.0000000 -0.0000000 -0.0000000 -0.0000000 -0.0000000 -0.0000000 -0.0000000 -0.0000000 -0.0000000 -0.0000000 -0.0000000 -0.0000000 -0.0000000 -0.0000000 -0.0000000 -0.0000000 -0.0000000 -0.0000000 -0.0000000 -0.0000000 -0.0000000 -0.0000000 -0.0000000 -0.0000000 -0.0000000 -0.0000000 -0.0000000 -0.0000000 -0.0000000 -0.0000000 -0.0000000
-0.0000000 -0.0000000 -0.0000000 -0.0000000 -0.0000000 -0.0000000 -0.0000000 -0.0000000 -0.0000000 -0.0000000 -0.0000000 -0.0000000 -0.0000000 -0.0000000 -0.0000000 -0.0000000 -0.0000000 -0.0000000 -0.0000000 -0.0000000 -0.0000000 -0.0000000 -0.0000000 -0.0000000 -0.0000000 -0.0000000 -0.0000000 -0.0000000 -0.0000000 -0.0000000 -0.0000000 -0.0000000 -0.0000000 -0.0000000 -0.0000000 -0.0000000 -0.0000000 -0.0000000 -0.0000000 -0.0000000 -0.0000000 -0.0000000 -0.0000000 -0.0000000
-0.0000000 -0.0000000 -0.0000000 -0.0000000 -0.0000000 -0.0000000 -0.0000000 -0.0000000 -0.0000000 -0.0000000 -0.0000000 -0.0000000 -0.0000000 -0.0000000 -0.0000000 -0.0000000 -0.0000000 -0.0000000 -0.0000000 -0.0000000 -0.0000000 -0.0000000 -0.0000000 -0.0000000 -0.0000000 -0.0000000 -0.0000000 -0.0000000 -0.0000000 -0.0000000 -0.0000000 -0.0000000 -0.0000000 -0.0000000 -0.0000000 -0.0000000 -0.0000000 -0.0000000 -0.0000000 -0.0000000 -0.0000000 -0.0000000 -0.0000000 -0.0000000
-0.0000000 -0.0000000 -0.0000000 -0.0000000 -0.0000000 -0.0000000 -0.0000000 -0.0000000 -0.0000000 -0.0000000 -0.0000000 -0.0000000 -0.0000000 -0.0000000 -0.0000000 -0.0000000 -0.0000000 -0.0000000 -0.0000000 -0.0000000 -0.0000000 -0.0000000 -0.0000000 -0.0000000 -0.0000000 -0.0000000 -0.0000000 -0.0000000 -0.0000000 -0.0000000 -0.0000000 -0.0000000 -0.0000000 -0.0000000 -0.0000000 -0.0000000 -0.0000000 -0.0000000 -0.0000000 -0.0000000 -0.0000000 -0.0000000 -0.0000000 -0.0000000
-0.0000000 -0.0000000 -0.0000000 -0.0000000 -0.0000000 -0.0000000 -0.0000000 -0.0000000 -0.0000000 -0.0000000 -0.0000000 -0.0000000 -0.0000000 -0.0000000 -0.0000000 -0.0000000 -0.0000000 -0.0000000 -0.0000000 -0.0000000 -0.0000000 -0.0000000 -0.0000000 -0.0000000 -0.0000000 -0.0000000 -0.0000000 -0.0000000 -0.0000000 -0.0000000 -0.0000000 -0.0000000 -0.0000000 -0.0000000 -0.0000000 -0.0000000 -0.0000000 -0.0000000 -0.0000000 -0.0000000 -0.0000000 -0.0000000 -0.0000000 -0.0000000
-0.0000000 -0.0000000 -0.0000000 -0.0000000 -0.0000000 -0.0000000 -0.0000000 -0.0000000 -0.0000000 -0.0000000 -0.0000000 -0.0000000 -0.0000000 -0.0000000 -0.0000000 -0.0000000 -0.0000000 -0.0000000 -0.0000000 -0.0000000 -0.0000000 -0.0000000 -0.0000000 -0.0000000 -0.0000000 -0.0000000 -0.0000000 -0.0000000 -0.0000000 -0.0000000 -0.0000000 -0.0000000 -0.0000000 -0.0000000 -0.0000000 -0.0000000 -0.0000000 -0.0000000 -0.0000000 -0.0000000 -0.0000000 -0.0000000 -0.0000000 -0.0000000
-0.0000000 -0.0000000 -0.0000000 -0.0000000 -0.0000000 -0.0000000 -0.0000000 -0.0000000 -0.0000000 -0.0000000 -0.0000000 -0.0000000 -0.0000000 -0.0000000 -0.0000000 -0.0000000 -0.0000000 -0.0000000 -0.0000000 -0.0000000 -0.0000000 -0.0000000 -0.0000000 -0.0000000 -0.0000000 -0.0000000 -0.0000000 -0.0000000 -0.0000000 -0.0000000 -0.0000000 -0.0000000 -0.0000000 -0.0000000 -0.0000000 -0.0000000 -0.0000000 -0.0000000 -0.0000000 -0.0000000 -0.0000000 -0.0000000 -0.0000000 -0.0000000
-0.0000000 -0.0000000 -0.0000000 -0.0000000 -0.0000000 -0.0000000 -0.0000000 -0.0000000 -0.0000000 -0.0000000 -0.0000000 -0.0000000 -0.0000000 -0.0000000 -0.0000000 -0.0000000 -0.0000000 -0.0000000 -0.0000000 -0.0000000 -0.0000000 -0.0000000 -0.0000000 -0.0000000 -0.0000000 -0.0000000 -0.0000000 -0.0000000 -0.0000000 -0.0000000 -0.0000000 -0.0000000 -0.0000000 -0.0000000 -0.0000000 -0.0000000 -0.0000000 -0.0000000 -0.0000000 -0.0000000 -0.0000000 -0.0000000 -0.0000000 -0.0000000
-0.0000000 -0.0000000 -0.0000000 -0.0000000 -0.0000000 -0.0000000 -0.0000000 -0.0000000 -0.0000000 -0.0000000 -0.0000000 -0.0000000 -0.0000000 -0.0000000 -0.0000000 -0.0000000 -0.0000000 -0.0000000 -0.0000000 -0.0000000 -0.0000000 -0.0000000 -0.0000000 -0.0000000 -0.0000000 -0.0000000 -0.0000000 -0.0000000 -0.0000000 -0.0000000 -0.0000000 -0.0000000 -0.0000000 -0.0000000 -0.0000000 -0.0000000 -0.0000000 -0.0000000 -0.0000000 -0.0000000 -0.0000000 -0.0000000 -0.0000000 -0.0000000
-0.0000000 -0.0000000 -0.0000000 -0.0000000 -0.0000000 -0.0000000 -0.0000000 -0.0000000 -0.0000000 -0.0000000 -0.0000000 -0.0000000 -0.0000000 -0.0000000 -0.0000000 -0.0000000 -0.0000000 -0.0000000 -0.0000000 -0.0000000 -0.0000000 -0.0000000 -0.0000000 -0.0000000 -0.0000000 -0.0000000 -0.0000000 -0.0000000 -0.0000000 -0.0000000 -0.0000000 -0.0000000 -0.0000000 -0.0000000 -0.0000000 -0.0000000 -0.0000000 -0.0000000 -0.0000000 -0.0000000 -0.0000000 -0.0000000 -0.0000000 -0.0000000
-0.0000000 -0.0000000 -0.0000000 -0.0000000 -0.0000000 -0.0000000 -0.0000000 -0.0000000 -0.0000000 -0.0000000 -0.0000000 -0.0000000 -0.0000000 -0.0000000 -0.0000000 -0.0000000 -0.0000000 -0.0000000 -0.0000000 -0.0000000 -0.0000000 -0.0000000 -0.0000000 -0.0000000 -0.0000000 -0.0000000 -0.0000000 -0.0000000 -0.0000000 -0.0000000 -0.0000000 -0.0000000 -0.0000000 -0.0000000 -0.0000000 -0.0000000 -0.0000000 -0.0000000 -0.0000000 -0.0000000 -0.0000000 -0.0000000 -0.0000000 -0.0000000
-0.0000016 0.0000025 0.0000020 -0.0000052 0.0000005 -0.0000006 0.0000022 -0.0000107 0.0000009 -0.0000036 -0.0000022 -0.0000022 0.0000034 -0.0000036 -0.0000030 -0.0000007 -0.0000023 -0.0000042 0.0000061 -0.0000058 -0.0000007 -0.0000027 -0.0000020 -0.0000005 -0.0000016 0.0000000 -0.0000003 -0.0000044 -0.0000012 -0.0000011 0.0000002 -0.0000004 0.0000008 0.0000043 0.0000026 -0.0000055 0.0000005 -0.0000067 0.0000008 -0.0000037 0.0000140 -0.0000152 0.0000001 0.0000020
-0.0000052 0.0000046 0.0000009 -0.0000069 0.0000001 -0.0000059 0.0000080 -0.0000240 -0.0000013 -0.0000001 -0.0000005 -0.0000050 0.0000086 -0.0000086 -0.0000039 -0.0000032 -0.0000061 -0.0000024 0.0000087 -0.0000101 -0.0000034 -0.0000010 -0.0000009 -0.0000036 -0.0000023 0.0000016 -0.0000002 -0.0000082 -0.0000035 0.0000003 0.0000002 0.0000016 0.0000014 0.0000087 0.0000037 -0.0000072 0.0000009 -0.0000126 0.0000013 -0.0000060 0.0000257 -0.0000229 0.0000000 0.0000059
-0.0000015 0.0000007 -0.0000011 -0.0000019 -0.0000002 -0.0000044 0.0000237 -0.0000478 0.0000001 0.0000041 -0.0000060 -0.0000018 0.0000143 -0.0000143 -0.0000038 -0.0000053 -0.0000051 -0.0000056 0.0000069 -0.0000070 -0.0000057 -0.0000008 -0.0000012 -0.0000047 -0.0000014 0.0000031 -0.0000012 -0.0000109 -0.0000050 0.0000006 -0.0000008 0.0000047 0.0000016 0.0000104 0.0000057 -0.0000102 0.0000012 -0.0000196 0.0000013 -0.0000097 0.0000430 -0.0000389 0.0000001 0.0000088
-0.0000048 0.0000039 -0.0000035 -0.0000005 0.0000016 -0.0000085 0.0000114 -0.0000409 -0.0000002 0.0000053 -0.0000096 0.0000031 0.0000135 -0.0000138 -0.0000048 -0.0000052 -0.0000030 -0.0000079 0.0000064 -0.0000063 -0.0000070 -0.0000051 -0.0000036 -0.0000033 -0.0000002 0.0000037 -0.0000025 -0.0000146 -0.0000065 -0.0000030 -0.0000015 0.0000038 0.0000020 0.0000042 0.0000075 -0.0000135 0.0000020 -0.0000310 0.0000012 -0.0000180 0.0000547 -0.0000493 0.0000005 0.0000073
-0.0000061 0.0000060 -0.0000036 -0.0000011 0.0000002 -0.0000038 0.0000160 -0.0000462 0.0000035 0.0000022 -0.0000128 0.0000040 0.0000260 -0.0000259 -0.0000049 -0.0000063 -0.0000059 -0.0000049 0.0000070 -0.0000043 -0.0000099 -0.0000139 -0.0000035 -0.0000047 -0.0000001 0.0000041 -0.0000036 -0.0000188 -0.0000081 -0.0000110 -0.0000022 -0.0000021 0.0000024 -0.0000098 0.0000090 -0.0000184 0.0000026 -0.0000460 0.0000014 -0.0000316 0.0000694 -0.0000660 0.0000009 0.0000015
-0.0000060 0.0000047 -0.0000062 -0.0000032 0.0000011 -0.0000051 0.0000275 -0.0000570 0.0000035 0.0000031 -0.0000124 0.0000036 0.0000377 -0.0000375 -0.0000051 -0.0000073 -0.0000093 -0.0000051 0.0000054 -0.0000020 -0.0000098 -0.0000179 -0.0000025 -0.0000053 0.0000003 0.0000050 -0.0000034 -0.0000219 -0.0000108 -0.0000146 -0.0000035 -0.0000003 0.0000021 -0.0000084 0.0000105 -0.0000203 0.0000028 -0.0000516 0.0000011 -0.0000352 0.0000784 -0.0000701 0.0000010 0.0000057
-0.0000032 0.0000052 -0.0000053 -0.0000016 0.0000010 -0.0000027 0.0000226 -0.0000699 0.0000035 0.0000058 -0.0000141 0.0000059 0.0000379 -0.0000378 -0.0000030 -0.0000101 -0.0000090 -0.0000007 0.0000051 0.0000010 -0.0000117 -0.0000151 0.0000002 -0.0000069 0.0000008 0.0000090 -0.0000033 -0.0000221 -0.0000134 -0.0000103 -0.0000049 0.0000096 0.0000011 0.0000013 0.0000101 -0.0000159 0.0000025 -0.0000524 0.0000002 -0.0000315 0.0000919 -0.0000722 0.0000014 0.0000143
-0.0000059 0.0000120 -0.0000087 0.0000088 0.0000009 0.0000004 0.0000132 -0.0000631 0.0000025 0.0000105 -0.0000127 0.0000032 0.0000481 -0.0000468 -0.0000047 -0.0000085 -0.0000122 0.0000096 0.0000025 0.0000051 -0.0000140 -0.0000107 0.0000016 -0.0000067 -0.0000003 0.0000161 -0.0000020 -0.0000226 -0.0000155 -0.0000042 -0.0000064 0.0000197 0.0000001 0.0000120 0.0000096 -0.0000102 0.0000022 -0.0000514 -0.0000012 -0.0000255 0.0001031 -0.0000677 0.0000008 0.0000249
-0.0000079 0.0000165 -0.0000096 0.0000172 0.0000010 -0.0000008 0.0000105 -0.0000567 0.0000005 0.0000191 -0.0000129 0.0000032 0.0000389 -0.0000383 -0.0000052 -0.0000081 -0.0000129 0.0000148 0.0000016 0.0000067 -0.0000194 -0.0000039 0.0000047 -0.0000084 -0.0000020 0.0000243 -0.0000042 -0.0000200 -0.0000182 0.0000018 -0.0000088 0.0000307 -0.0000011 0.0000204 0.0000091 -0.0000049 0.0000020 -0.0000520 -0.0000024 -0.0000211 0.0001157 -0.0000639 0.0000005 0.0000335
-0.0000095 0.0000230 -0.0000097 0.0000240 0.0000015 -0.0000022 0.0000266 -0.0000795 -0.0000022 0.0000288 -0.0000154 0.0000104 0.0000376 -0.0000369 -0.0000049 -0.0000080 -0.0000106 0.0000182 0.0000037 0.0000058 -0.0000246 -0.0000007 0.0000077 -0.0000099 -0.0000033 0.0000302 -0.0000065 -0.0000172 -0.0000200 0.0000026 -0.0000094 0.0000356 -0.0000020 0.0000182 0.0000099 -0.0000033 0.0000018 -0.0000580 -0.0000029 -0.0000241 0.0001283 -0.0000652 0.0000004 0.0000351
-0.0000063 0.0000255 -0.0000113 0.0000260 0.0000031 -0.0000012 0.0000223 -0.0000739 0.0000044 0.0000252 -0.0000139 0.0000132 0.0000373 -0.0000367 -0.0000066 -0.0000043 -0.0000142 0.0000237 -0.0000037 0.0000139 -0.0000285 -0.0000053 0.0000052 -0.0000079 -0.0000045 0.0000334 -0.0000085 -0.0000165 -0.0000205 -0.0000039 -0.0000108 0.0000353 -0.0000024 0.0000057 0.0000108 -0.0000049 0.0000018 -0.0000694 -0.0000033 -0.0000345 0.0001430 -0.0000744 0.0000007 0.0000299
-0.0000070 0.0000307 -0.0000123 0.0000266 0.0000048 0.0000007 0.0000172 -0.0000759 0.0000048 0.0000254 -0.0000156 0.0000113 0.0000568 -0.0000548 -0.0000053 -0.0000036 -0.0000151 0.0000272 -0.0000029 0.0000149 -0.0000306 -0.0000086 0.0000026 -0.0000081 -0.0000049 0.0000367 -0.0000088 -0.0000168 -0.0000228 -0.0000108 -0.0000125 0.0000375 -0.0000034 0.0000037 0.0000112 -0.0000045 0.0000012 -0.0000739 -0.0000040 -0.0000387 0.0001557 -0.0000775 0.0000007 0.0000309
-0.0000064 0.0000368 -0.0000101 0.0000240 0.0000041 0.0000081 0.0000261 -0.0000846 0.0000035 0.0000317 -0.0000149 0.0000093 0.0000522 -0.0000506 -0.0000069 -0.0000011 -0.0000158 0.0000306 -0.0000071 0.0000199 -0.0000324 -0.0000087 0.0000017 -0.0000083 -0.0000063 0.0000412 -0.0000081 -0.0000167 -0.0000250 -0.0000091 -0.0000137 0.0000462 -0.0000044 0.0000106 0.0000110 -0.0000011 0.0000001 -0.0000733 -0.0000049 -0.0000345 0.0001654 -0.0000701 0.0000007 0.0000372
-0.0000040 0.0000422 -0.0000120 0.0000283 0.0000023 0.0000131 0.0000232 -0.0000817 0.0000001 0.0000411 -0.0000139 0.0000084 0.0000544 -0.0000524 -0.0000070 0.0000011 -0.0000176 0.0000383 -0.0000077 0.0000224 -0.0000348 -0.0000049 0.0000030 -0.0000103 -0.0000061 0.0000458 -0.0000111 -0.0000133 -0.0000261 -0.0000054 -0.0000146 0.0000555 -0.0000054 0.0000181 0.0000109 0.0000042 -0.0000010 -0.0000717 -0.0000055 -0.0000291 0.0001752 -0.0000611 0.0000010 0.0000445
-0.0000071 0.0000542 -0.0000143 0.0000357 0.0000003 0.0000171 0.0000214 -0.0000807 -0.0000022 0.0000481 -0.0000089 0.0000076 0.0000492 -0.0000473 -0.0000061 0.0000017 -0.0000189 0.0000488 -0.0000091 0.0000263 -0.0000356 -0.0000017 0.0000002 -0.0000096 -0.0000065 0.0000505 -0.0000117 -0.0000127 -0.0000270 -0.0000020 -0.0000161 0.0000667 -0.0000066 0.0000249 0.0000099 0.0000100 -0.0000018 -0.0000711 -0.0000063 -0.0000239 0.0001858 -0.0000524 0.0000014 0.0000511
-0.0000062 0.0000624 -0.0000137 0.0000412 -0.0000012 0.0000213 0.0000225 -0.0000724 -0.0000047 0.0000534 -0.0000100 0.0000101 0.0000300 -0.0000296 -0.0000048 0.0000041 -0.0000167 0.0000554 -0.0000097 0.0000307 -0.0000368 -0.0000046 -0.0000021 -0.0000093 -0.0000084 0.0000566 -0.0000105 -0.0000141 -0.0000269 -0.0000044 -0.0000169 0.0000708 -0.0000076 0.0000196 0.0000093 0.0000127 -0.0000025 -0.0000771 -0.0000065 -0.0000268 0.0001942 -0.0000461 0.0000014 0.0000502
-0.0000090 0.0000700 -0.0000136 0.0000416 0.0000015 0.0000187 0.0000027 -0.0000486 -0.0000105 0.0000623 -0.0000101 0.0000129 0.0000366 -0.0000355 -0.0000066 0.0000059 -0.0000198 0.0000626 -0.0000138 0.0000351 -0.0000372 -0.0000137 -0.0000024 -0.0000091 -0.0000086 0.0000600 -0.0000110 -0.0000148 -0.0000266 -0.0000124 -0.0000165 0.0000689 -0.0000078 0.0000025 0.0000101 0.0000107 -0.0000025 -0.0000893 -0.0000064 -0.0000372 0.0002048 -0.0000500 0.0000022 0.0000409
-0.0000129 0.0000737 -0.0000131 0.0000352 0.0000029 0.0000141 -0.0000153 -0.0000441 -0.0000119 0.0000602 -0.0000066 0.0000133 0.0000454 -0.0000437 -0.0000025 0.0000023 -0.0000154 0.0000632 -0.0000127 0.0000391 -0.0000365 -0.0000237 -0.0000007 -0.0000100 -0.0000076 0.0000643 -0.0000123 -0.0000151 -0.0000250 -0.0000223 -0.0000167 0.0000695 -0.0000084 -0.0000100 0.0000114 0.0000107 -0.0000024 -0.0000979 -0.0000058 -0.0000452 0.0002138 -0.0000497 0.0000035 0.0000352
-0.0000143 0.0000739 -0.0000179 0.0000332 0.0000056 0.0000126 0.0000214 -0.0000697 -0.0000157 0.0000580 -0.0000055 0.0000196 0.0000521 -0.0000502 0.0000033 -0.0000033 -0.0000127 0.0000646 -0.0000100 0.0000411 -0.0000346 -0.0000280 -0.0000009 -0.0000052 -0.0000084 0.0000719 -0.0000126 -0.0000146 -0.0000216 -0.0000261 -0.0000154 0.0000736 -0.0000089 -0.0000146 0.0000116 0.0000142 -0.0000029 -0.0001014 -0.0000056 -0.0000460 0.0002255 -0.0000460 0.0000046 0.0000350
-0.0000141 0.0000725 -0.0000190 0.0000312 0.0000078 0.0000096 0.0000200 -0.0000627 -0.0000213 0.0000605 -0.0000076 0.0000297 0.0000561 -0.0000541 0.0000088 -0.0000083 -0.0000124 0.0000664 -0.0000137 0.0000502 -0.0000346 -0.0000316 0.0000003 -0.0000010 -0.0000068 0.0000780 -0.0000090 -0.0000153 -0.0000172 -0.0000283 -0.0000140 0.0000792 -0.0000094 -0.0000183 0.0000139 0.0000171 -0.0000034 -0.0001047 -0.0000054 -0.0000463 0.0002391 -0.0000451 0.0000061 0.0000359
-0.0000072 0.0000688 -0.0000183 0.0000310 0.0000089 0.0000123 0.0000268 -0.0000585 -0.0000228 0.0000630 -0.0000043 0.0000372 0.0000495 -0.0000479 0.0000134 -0.0000113 -0.0000099 0.0000701 -0.0000155 0.0000576 -0.0000344 -0.0000353 0.0000011 0.0000048 -0.0000060 0.0000852 -0.0000091 -0.0000141 -0.0000133 -0.0000299 -0.0000120 0.0000831 -0.0000099 -0.0000229 0.0000150 0.0000205 -0.0000040 -0.0001082 -0.0000049 -0.0000468 0.0002490 -0.0000374 0.0000083 0.0000359
-0.0000065 0.0000686 -0.0000156 0.0000275 0.0000120 0.0000119 0.0000406 -0.0000596 -0.0000294 0.0000639 0.0000003 0.0000443 0.0000489 -0.0000472 0.0000191 -0.0000173 -0.0000086 0.0000752 -0.0000161 0.0000607 -0.0000351 -0.0000416 0.0000037 0.0000091 -0.0000048 0.0000891 -0.0000096 -0.0000128 -0.0000091 -0.0000368 -0.0000096 0.0000807 -0.0000098 -0.0000397 0.0000160 0.0000198 -0.0000040 -0.0001185 -0.0000039 -0.0000559 0.0002584 -0.0000361 0.0000105 0.0000277
-0.0000093 0.0000672 -0.0000160 0.0000214 0.0000138 0.0000098 0.0000272 -0.0000519 -0.0000320 0.0000575 0.0000018 0.0000526 0.0000446 -0.0000437 0.0000251 -0.0000264 -0.0000066 0.0000726 -0.0000148 0.0000624 -0.0000342 -0.0000566 0.0000049 0.0000131 -0.0000037 0.0000923 -0.0000084 -0.0000109 -0.0000044 -0.0000517 -0.0000069 0.0000705 -0.0000091 -0.0000660 0.0000162 0.0000162 -0.0000034 -0.0001338 -0.0000022 -0.0000723 0.0002642 -0.0000399 0.0000137 0.0000125
-0.0000056 0.0000584 -0.0000164 0.0000148 0.0000188 0.0000029 0.0000359 -0.0000506 -0.0000390 0.0000533 0.0000103 0.0000526 0.0000572 -0.0000558 0.0000306 -0.0000340 -0.0000062 0.0000709 -0.0000189 0.0000659 -0.0000336 -0.0000701 0.0000018 0.0000199 -0.0000031 0.0000963 -0.0000091 -0.0000089 0.0000003 -0.0000671 -0.0000046 0.0000644 -0.0000081 -0.0000813 0.0000174 0.0000127 -0.0000027 -0.0001424 -0.0000003 -0.0000821 0.0002743 -0.0000429 0.0000165 0.0000049
-0.0000037 0.0000506 -0.0000181 0.0000096 0.0000219 -0.0000018 0.0000359 -0.0000533 -0.0000534 0.0000637 0.0000175 0.0000560 0.0000617 -0.0000603 0.0000327 -0.0000375 -0.0000045 0.0000692 -0.0000184 0.0000649 -0.0000311 -0.0000772 0.0000030 0.0000263 -0.0000008 0.0000980 -0.0000075 -0.0000064 0.0000056 -0.0000750 -0.0000007 0.0000621 -0.0000070 -0.0000888 0.0000193 0.0000115 -0.0000020 -0.0001468 0.0000018 -0.0000865 0.0002841 -0.0000416 0.0000197 0.0000015
-0.0000043 0.0000484 -0.0000183 0.0000076 0.0000248 -0.0000007 0.0000198 -0.0000433 -0.0000571 0.0000592 0.0000190 0.0000634 0.0000681 -0.0000661 0.0000367 -0.0000403 -0.0000035 0.0000680 -0.0000210 0.0000689 -0.0000293 -0.0000841 -0.0000024 0.0000352 -0.0000006 0.0001015 -0.0000072 -0.0000041 0.0000092 -0.0000800 0.0000019 0.0000623 -0.0000056 -0.0000940 0.0000212 0.0000101 -0.0000013 -0.0001498 0.0000034 -0.0000893 0.0002951 -0.0000406 0.0000233 0.0000005
0.0000008 0.0000415 -0.0000174 0.0000080 0.0000304 -0.0000061 0.0000158 -0.0000248 -0.0000591 0.0000587 0.0000230 0.0000658 0.0000756 -0.0000731 0.0000385 -0.0000402 -0.0000059 0.0000692 -0.0000243 0.0000738 -0.0000287 -0.0000877 -0.0000033 0.0000414 -0.0000012 0.0001055 -0.0000040 -0.0000038 0.0000139 -0.0000858 0.0000056 0.0000614 -0.0000041 -0.0000993 0.0000228 0.0000090 -0.0000006 -0.0001528 0.0000054 -0.0000922 0.0003014 -0.0000331 0.0000267 -0.0000009
0.0000055 0.0000354 -0.0000170 0.0000076 0.0000325 -0.0000024 0.0000102 -0.0000132 -0.0000603 0.0000538 0.0000299 0.0000685 0.0000726 -0.0000704 0.0000425 -0.0000468 -0.0000020 0.0000626 -0.0000243 0.0000750 -0.0000288 -0.0000963 -0.0000028 0.0000456 -0.0000001 0.0001069 -0.0000028 -0.0000032 0.0000198 -0.0000974 0.0000097 0.0000543 -0.0000017 -0.0001170 0.0000245 0.0000046 0.0000009 -0.0001639 0.0000082 -0.0001042 0.0003084 -0.0000308 0.0000306 -0.0000111
0.0000082 0.0000285 -0.0000174 0.0000083 0.0000380 -0.0000076 0.0000194 -0.0000136 -0.0000716 0.0000568 0.0000353 0.0000722 0.0000878 -0.0000849 0.0000450 -0.0000526 -0.0000002 0.0000543 -0.0000252 0.0000745 -0.0000229 -0.0001174 -0.0000067 0.0000513 0.0000017 0.0001043 -0.0000004 -0.0000064 0.0000270 -0.0001168 0.0000141 0.0000405 0.0000015 -0.0001442 0.0000269 -0.0000034 0.0000028 -0.0001797 0.0000121 -0.0001232 0.0003172 -0.0000393 0.0000355 -0.0000274
0.0000098 0.0000190 -0.0000165 -0.0000003 0.0000417 -0.0000128 0.0000221 -0.0000104 -0.0000776 0.0000513 0.0000457 0.0000658 0.0001152 -0.0001108 0.0000447 -0.0000541 0.0000004 0.0000485 -0.0000306 0.0000785 -0.0000188 -0.0001314 -0.0000083 0.0000539 0.0000045 0.0001012 0.0000008 -0.0000109 0.0000340 -0.0001333 0.0000188 0.0000319 0.0000049 -0.0001570 0.0000287 -0.0000066 0.0000047 -0.0001875 0.0000157 -0.0001339 0.0003253 -0.0000404 0.0000409 -0.0000334
0.0000138 0.0000109 -0.0000120 -0.0000048 0.0000449 -0.0000155 0.0000489 -0.0000308 -0.0000815 0.0000532 0.0000457 0.0000689 0.0001205 -0.0001160 0.0000456 -0.0000546 0.0000023 0.0000433 -0.0000321 0.0000801 -0.0000193 -0.0001325 -0.0000094 0.0000579 0.0000061 0.0001021 0.0000009 -0.0000138 0.0000384 -0.0001385 0.0000240 0.0000291 0.0000081 -0.0001593 0.0000308 -0.0000075 0.0000070 -0.0001903 0.0000188 -0.0001372 0.0003340 -0.0000363 0.0000465 -0.0000328
0.0000194 0.0000032 -0.0000129 -0.0000012 0.0000455 -0.0000117 0.0000352 -0.0000037 -0.0000859 0.0000580 0.0000483 0.0000741 0.0001228 -0.0001186 0.0000479 -0.0000545 0.0000084 0.0000347 -0.0000338 0.0000838 -0.0000175 -0.0001368 -0.0000078 0.0000616 0.0000076 0.0001033 0.0000019 -0.0000182 0.0000440 -0.0001422 0.0000300 0.0000279 0.0000120 -0.0001599 0.0000335 -0.0000072 0.0000090 -0.0001920 0.0000216 -0.0001381 0.0003390 -0.0000262 0.0000518 -0.0000293
0.0000220 0.0000010 -0.0000133 0.0000039 0.0000488 -0.0000127 0.0000291 0.0000090 -0.0000884 0.0000626 0.0000470 0.0000780 0.0001311 -0.0001263 0.0000508 -0.0000542 0.0000113 0.0000330 -0.0000376 0.0000898 -0.0000152 -0.0001374 -0.0000076 0.0000654 0.0000090 0.0001061 0.0000026 -0.0000219 0.0000520 -0.0001469 0.0000354 0.0000279 0.0000156 -0.0001605 0.0000356 -0.0000048 0.0000110 -0.0001940 0.0000246 -0.0001393 0.0003440 -0.0000159 0.0000570 -0.0000254
0.0000185 0.0000032 -0.0000113 0.0000075 0.0000523 -0.0000108 0.0000463 0.0000071 -0.0000867 0.0000671 0.0000492 0.0000798 0.0001340 -0.0001292 0.0000517 -0.0000533 0.0000124 0.0000299 -0.0000340 0.0000918 -0.0000134 -0.0001470 -0.0000045 0.0000650 0.0000104 0.0001043 0.0000039 -0.0000270 0.0000594 -0.0001564 0.0000405 0.0000204 0.0000196 -0.0001757 0.0000377 -0.0000077 0.0000137 -0.0002042 0.0000275 -0.0001509 0.0003517 -0.0000123 0.0000630 -0.0000319
0.0000174 0.0000016 -0.0000091 0.0000033 0.0000559 -0.0000083 0.0000421 0.0000215 -0.0000850 0.0000636 0.0000422 0.0000866 0.0001454 -0.0001401 0.0000527 -0.0000528 0.0000122 0.0000262 -0.0000363 0.0000925 -0.0000124 -0.0001596 -0.0000051 0.0000673 0.0000112 0.0001033 0.0000065 -0.0000333 0.0000667 -0.0001729 0.0000465 0.0000059 0.0000242 -0.0001969 0.0000413 -0.0000144 0.0000169 -0.0002178 0.0000309 -0.0001677 0.0003572 -0.0000104 0.0000692 -0.0000428
0.0000234 -0.0000009 -0.0000036 -0.0000041 0.0000650 -0.0000103 0.0000499 0.0000203 -0.0000856 0.0000642 0.0000461 0.0000884 0.0001592 -0.0001531 0.0000521 -0.0000480 0.0000168 0.0000134 -0.0000422 0.0000990 -0.0000100 -0.0001705 -0.0000009 0.0000692 0.0000124 0.0001004 0.0000099 -0.0000223 0.0000735 -0.0001850 0.0000516 -0.0000040 0.0000293 -0.0002038 0.0000435 -0.0000209 0.0000192 -0.0002228 0.0000348 -0.0001747 0.0003590 0.0000017 0.0000690 -0.0000558
0.0000245 0.0000102 0.0000012 -0.0000031 0.0000642 -0.0000000 0.0000696 0.0000178 -0.0000810 0.0000664 0.0000447 0.0000993 0.0001590 -0.0001520 0.0000521 -0.0000384 0.0000252 0.0000015 -0.0000400 0.0000981 -0.0000081 -0.0001742 0.0000018 0.0000738 0.0000146 0.0000988 0.0000139 -0.0000022 0.0000790 -0.0001894 0.0000545 -0.0000073 0.0000340 -0.0001977 0.0000437 -0.0000226 0.0000213 -0.0002206 0.0000382 -0.0001721 0.0003666 0.0000218 0.0000686 -0.0000619
0.0000297 0.0000270 0.0000061 0.0000064 0.0000646 0.0000116 0.0000938 0.0000106 -0.0000784 0.0000720 0.0000437 0.0001041 0.0001562 -0.0001483 0.0000439 -0.0000206 0.0000230 -0.0000036 -0.0000380 0.0000933 -0.0000075 -0.0001774 0.0000038 0.0000747 0.0000147 0.0000923 0.0000184 0.0000199 0.0000828 -0.0001936 0.0000582 -0.0000115 0.0000393 -0.0001862 0.0000428 -0.0000268 0.0000234 -0.0002148 0.0000420 -0.0001653 0.0003731 0.0000447 0.0000666 -0.0000664
0.0000323 0.0000496 0.0000083 0.0000215 0.0000601 0.0000282 0.0000720 0.0000430 -0.0000728 0.0000855 0.0000435 0.0001092 0.0001399 -0.0001318 0.0000326 -0.0000006 0.0000215 -0.0000090 -0.0000343 0.0000873 -0.0000064 -0.0001766 0.0000065 0.0000719 0.0000145 0.0000868 0.0000216 0.0000464 0.0000850 -0.0001939 0.0000606 -0.0000119 0.0000447 -0.0001721 0.0000423 -0.0000309 0.0000257 -0.0002093 0.0000458 -0.0001568 0.0003785 0.0000664 0.0000644 -0.0000727
0.0000337 0.0000732 0.0000135 0.0000320 0.0000579 0.0000419 0.0000640 0.0000453 -0.0000655 0.0000913 0.0000477 0.0001123 0.0001356 -0.0001264 0.0000206 0.0000173 0.0000203 -0.0000113 -0.0000332 0.0000808 -0.0000050 -0.0001826 0.0000082 0.0000674 0.0000137 0.0000816 0.0000238 0.0000698 0.0000873 -0.0002012 0.0000636 -0.0000218 0.0000506 -0.0001746 0.0000415 -0.0000398 0.0000281 -0.0002118 0.0000503 -0.0001576 0.0003823 0.0000849 0.0000617 -0.0000898
0.0000369 0.0000868 0.0000150 0.0000363 0.0000531 0.0000521 0.0000509 0.0000459 -0.0000656 0.0000982 0.0000481 0.0001151 0.0001302 -0.0001201 0.0000114 0.0000289 0.0000178 -0.0000159 -0.0000296 0.0000705 -0.0000025 -0.0001946 0.0000091 0.0000645 0.0000136 0.0000731 0.0000289 0.0000928 0.0000894 -0.0002142 0.0000669 -0.0000371 0.0000567 -0.0001847 0.0000404 -0.0000491 0.0000312 -0.0002189 0.0000554 -0.0001646 0.0003872 0.0000988 0.0000587 -0.0001137
0.0000363 0.0001019 0.0000184 0.0000345 0.0000479 0.0000587 0.0000420 0.0000395 -0.0000569 0.0000966 0.0000519 0.0001158 0.0001292 -0.0001183 0.0000026 0.0000407 0.0000162 -0.0000248 -0.0000256 0.0000617 -0.0000021 -0.0001995 0.0000092 0.0000629 0.0000143 0.0000664 0.0000338 0.0001169 0.0000932 -0.0002256 0.0000697 -0.0000481 0.0000628 -0.0001830 0.0000408 -0.0000568 0.0000340 -0.0002186 0.0000598 -0.0001635 0.0003897 0.0001199 0.0000559 -0.0001297
0.0000419 0.0001172 0.0000189 0.0000413 0.0000410 0.0000739 0.0000354 0.0000506 -0.0000504 0.0001053 0.0000630 0.0001151 0.0001131 -0.0001021 -0.0000053 0.0000572 0.0000143 -0.0000308 -0.0000249 0.0000567 0.0000008 -0.0001982 0.0000094 0.0000612 0.0000138 0.0000635 0.0000386 0.0001409 0.0000937 -0.0002253 0.0000720 -0.0000516 0.0000687 -0.0001709 0.0000403 -0.0000607 0.0000359 -0.0002125 0.0000639 -0.0001543 0.0003955 0.0001418 0.0000514 -0.0001383
0.0000386 0.0001400 0.0000198 0.0000490 0.0000342 0.0000863 0.0000410 0.0000421 -0.0000434 0.0001125 0.0000619 0.0001256 0.0001025 -0.0000908 -0.0000117 0.0000716 0.0000128 -0.0000316 -0.0000227 0.0000522 0.0000012 -0.0001920 0.0000145 0.0000564 0.0000161 0.0000588 0.0000441 0.0001651 0.0000957 -0.0002225 0.0000748 -0.0000531 0.0000736 -0.0001561 0.0000401 -0.0000620 0.0000378 -0.0002055 0.0000676 -0.0001430 0.0003977 0.0001675 0.0000476 -0.0001454
0.0000395 0.0001612 0.0000217 0.0000586 0.0000278 0.0000959 0.0000210 0.0000639 -0.0000298 0.0001110 0.0000619 0.0001340 0.0000954 -0.0000826 -0.0000148 0.0000813 0.0000105 -0.0000333 -0.0000226 0.0000506 0.0000027 -0.0001853 0.0000174 0.0000540 0.0000172 0.0000576 0.0000488 0.0001891 0.0000972 -0.0002155 0.0000765 -0.0000518 0.0000782 -0.0001415 0.0000383 -0.0000607 0.0000397 -0.0001992 0.0000709 -0.0001308 0.0004012 0.0001937 0.0000430 -0.0001535
0.0000363 0.0001822 0.0000210 0.0000672 0.0000188 0.0001074 0.0000147 0.0000684 -0.0000224 0.0001144 0.0000625 0.0001394 0.0000841 -0.0000710 -0.0000174 0.0000882 0.0000099 -0.0000339 -0.0000208 0.0000466 0.0000025 -0.0001865 0.0000235 0.0000494 0.0000177 0.0000572 0.0000540 0.0002110 0.0001004 -0.0002173 0.0000800 -0.0000600 0.0000828 -0.0001465 0.0000372 -0.0000636 0.0000420 -0.0002033 0.0000746 -0.0001295 0.0003995 0.0002149 0.0000388 -0.0001717
0.0000353 0.0001947 0.0000238 0.0000618 0.0000131 0.0001132 0.0000172 0.0000550 -0.0000177 0.0001146 0.0000729 0.0001355 0.0000714 -0.0000584 -0.0000210 0.0000944 0.0000169 -0.0000419 -0.0000155 0.0000404 0.0000050 -0.0001963 0.0000277 0.0000431 0.0000185 0.0000539 0.0000571 0.0002271 0.0001037 -0.0002241 0.0000819 -0.0000716 0.0000877 -0.0001604 0.0000373 -0.0000703 0.0000448 -0.0002119 0.0000785 -0.0001345 0.0004028 0.0002256 0.0000356 -0.0001937
0.0000352 0.0002088 0.0000259 0.0000569 0.0000084 0.0001163 0.0000120 0.0000517 -0.0000125 0.0001149 0.0000751 0.0001359 0.0000649 -0.0000518 -0.0000223 0.0001020 0.0000176 -0.0000432 -0.0000123 0.0000385 0.0000087 -0.0002034 0.0000309 0.0000400 0.0000192 0.0000524 0.0000587 0.0002433 0.0001064 -0.0002290 0.0000848 -0.0000799 0.0000923 -0.0001630 0.0000372 -0.0000739 0.0000471 -0.0002131 0.0000822 -0.0001318 0.0004045 0.0002421 0.0000327 -0.0002064
0.0000301 0.0002253 0.0000297 0.0000483 0.0000024 0.0001232 -0.0000276 0.0000784 -0.0000050 0.0001164 0.0000737 0.0001431 0.0000555 -0.0000422 -0.0000216 0.0001078 0.0000230 -0.0000461 -0.0000120 0.0000404 0.0000103 -0.0002001 0.0000311 0.0000411 0.0000207 0.0000506 0.0000629 0.0002582 0.0001076 -0.0002251 0.0000872 -0.0000818 0.0000963 -0.0001570 0.0000381 -0.0000746 0.0000486 -0.0002094 0.0000859 -0.0001229 0.0004058 0.0002665 0.0000288 -0.0002124
0.0000255 0.0002456 0.0000320 0.0000459 -0.0000018 0.0001290 -0.0000468 0.0000973 0.0000003 0.0001213 0.0000741 0.0001474 0.0000437 -0.0000303 -0.0000201 0.0001135 0.0000242 -0.0000445 -0.0000108 0.0000426 0.0000135 -0.0001982 0.0000326 0.0000406 0.0000212 0.0000520 0.0000684 0.0002715 0.0001080 -0.0002188 0.0000885 -0.0000817 0.0001002 -0.0001489 0.0000382 -0.0000736 0.0000500 -0.0002041 0.0000889 -0.0001111 0.0004033 0.0002939 0.0000256 -0.0002151
0.0000250 0.0002646 0.0000324 0.0000447 -0.0000074 0.0001360 -0.0000464 0.0001063 0.0000047 0.0001324 0.0000776 0.0001535 0.0000347 -0.0000209 -0.0000184 0.0001194 0.0000242 -0.0000392 -0.0000114 0.0000457 0.0000148 -0.0001942 0.0000363 0.0000398 0.0000216 0.0000555 0.0000706 0.0002864 0.0001094 -0.0002103 0.0000888 -0.0000797 0.0001032 -0.0001397 0.0000382 -0.0000705 0.0000515 -0.0001985 0.0000914 -0.0000979 0.0004061 0.0003162 0.0000226 -0.0002152
0.0000196 0.0002846 0.0000314 0.0000455 -0.0000103 0.0001367 -0.0000366 0.0000961 0.0000124 0.0001329 0.0000783 0.0001577 0.0000277 -0.0000137 -0.0000192 0.0001259 0.0000223 -0.0000345 -0.0000085 0.0000460 0.0000168 -0.0001984 0.0000345 0.0000413 0.0000225 0.0000571 0.0000724 0.0002949 0.0001098 -0.0002086 0.0000889 -0.0000860 0.0001060 -0.0001476 0.0000385 -0.0000714 0.0000535 -0.0002020 0.0000942 -0.0000965 0.0004069 0.0003288 0.0000215 -0.0002233
0.0000169 0.0002986 0.0000347 0.0000386 -0.0000172 0.0001456 -0.0000261 0.0000998 0.0000131 0.0001339 0.0000752 0.0001674 0.0000223 -0.0000089 -0.0000228 0.0001322 0.0000232 -0.0000358 -0.0000104 0.0000490 0.0000188 -0.0002089 0.0000375 0.0000368 0.0000234 0.0000539 0.0000726 0.0002987 0.0001103 -0.0002124 0.0000900 -0.0000982 0.0001094 -0.0001626 0.0000387 -0.0000743 0.0000558 -0.0002094 0.0000978 -0.0001012 0.0004070 0.0003355 0.0000220 -0.0002332
0.0000133 0.0003121 0.0000366 0.0000287 -0.0000233 0.0001510 -0.0000199 0.0000902 0.0000098 0.0001379 0.0000818 0.0001661 0.0000275 -0.0000135 -0.0000203 0.0001344 0.0000248 -0.0000376 -0.0000125 0.0000486 0.0000221 -0.0002110 0.0000364 0.0000383 0.0000250 0.0000557 0.0000738 0.0003024 0.0001120 -0.0002118 0.0000914 -0.0001032 0.0001126 -0.0001633 0.0000387 -0.0000723 0.0000572 -0.0002084 0.0001016 -0.0000960 0.0004048 0.0003469 0.0000217 -0.0002331
0.0000120 0.0003239 0.0000352 0.0000261 -0.0000272 0.0001533 -0.0000186 0.0000928 0.0000127 0.0001400 0.0000891 0.0001632 0.0000258 -0.0000118 -0.0000200 0.0001352 0.0000310 -0.0000399 -0.0000142 0.0000532 0.0000264 -0.0002113 0.0000349 0.0000391 0.0000259 0.0000568 0.0000768 0.0003030 0.0001123 -0.0002052 0.0000934 -0.0001032 0.0001152 -0.0001601 0.0000377 -0.0000687 0.0000581 -0.0002053 0.0001047 -0.0000865 0.0004065 0.0003559 0.0000210 -0.0002280
0.0000079 0.0003282 0.0000324 0.0000262 -0.0000377 0.0001578 0.0000014 0.0000838 0.0000155 0.0001412 0.0000800 0.0001666 0.0000319 -0.0000179 -0.0000182 0.0001323 0.0000250 -0.0000256 -0.0000124 0.0000528 0.0000285 -0.0002050 0.0000348 0.0000313 0.0000262 0.0000588 0.0000729 0.0002818 0.0001131 -0.0001980 0.0000947 -0.0000982 0.0001171 -0.0001538 0.0000382 -0.0000601 0.0000602 -0.0002007 0.0001071 -0.0000762 0.0004052 0.0003629 0.0000299 -0.0002021
0.0000072 0.0003234 0.0000291 0.0000249 -0.0000369 0.0001523 0.0000026 0.0000828 0.0000128 0.0001473 0.0000801 0.0001527 0.0000410 -0.0000275 -0.0000171 0.0001263 0.0000227 -0.0000198 -0.0000139 0.0000544 0.0000303 -0.0002002 0.0000335 0.0000196 0.0000238 0.0000634 0.0000723 0.0002462 0.0001146 -0.0001908 0.0000970 -0.0000938 0.0001190 -0.0001479 0.0000389 -0.0000507 0.0000625 -0.0001971 0.0001093 -0.0000676 0.0003999 0.0003665 0.0000387 -0.0001755
0.0000101 0.0003139 0.0000261 0.0000235 -0.0000369 0.0001474 -0.0000106 0.0000960 0.0000116 0.0001511 0.0000782 0.0001417 0.0000610 -0.0000476 -0.0000159 0.0001203 0.0000241 -0.0000196 -0.0000168 0.0000561 0.0000329 -0.0002043 0.0000275 0.0000109 0.0000202 0.0000676 0.0000681 0.0002060 0.0001148 -0.0001910 0.0000981 -0.0000984 0.0001210 -0.0001602 0.0000415 -0.0000460 0.0000650 -0.0002041 0.0001114 -0.0000725 0.0003911 0.0003624 0.0000487 -0.0001575
0.0000042 0.0003111 0.0000248 0.0000166 -0.0000345 0.0001399 -0.0000093 0.0000880 0.0000104 0.0001469 0.0000749 0.0001263 0.0000765 -0.0000643 -0.0000125 0.0001146 0.0000281 -0.0000226 -0.0000135 0.0000572 0.0000321 -0.0002127 0.0000242 -0.0000009 0.0000174 0.0000690 0.0000619 0.0001612 0.0001172 -0.0001999 0.0001001 -0.0001101 0.0001235 -0.0001808 0.0000435 -0.0000430 0.0000679 -0.0002150 0.0001135 -0.0000831 0.0003845 0.0003547 0.0000588 -0.0001435
0.0000041 0.0003030 0.0000250 0.0000038 -0.0000328 0.0001369 -0.0000357 0.0001140 0.0000076 0.0001496 0.0000682 0.0001081 0.0000951 -0.0000833 -0.0000080 0.0001110 0.0000295 -0.0000228 -0.0000159 0.0000610 0.0000341 -0.0002123 0.0000217 -0.0000118 0.0000172 0.0000673 0.0000574 0.0001187 0.0001181 -0.0002016 0.0001017 -0.0001139 0.0001260 -0.0001837 0.0000446 -0.0000365 0.0000701 -0.0002161 0.0001159 -0.0000831 0.0003787 0.0003494 0.0000687 -0.0001188
-0.0000002 0.0003042 0.0000249 0.0000001 -0.0000316 0.0001333 -0.0000112 0.0001034 0.0000065 0.0001561 0.0000654 0.0000878 0.0001102 -0.0000990 -0.0000057 0.0001100 0.0000308 -0.0000232 -0.0000181 0.0000668 0.0000353 -0.0002086 0.0000170 -0.0000220 0.0000166 0.0000690 0.0000510 0.0000766 0.0001199 -0.0001968 0.0001027 -0.0001121 0.0001281 -0.0001801 0.0000453 -0.0000271 0.0000723 -0.0002143 0.0001171 -0.0000777 0.0003745 0.0003460 0.0000783 -0.0000897
0.0000013 0.0003011 0.0000229 -0.0000000 -0.0000322 0.0001374 0.0000282 0.0000945 0.0000058 0.0001624 0.0000569 0.0000750 0.0001111 -0.0001015 -0.0000011 0.0001084 0.0000341 -0.0000201 -0.0000226 0.0000751 0.0000395 -0.0002067 0.0000177 -0.0000333 0.0000141 0.0000722 0.0000453 0.0000348 0.0001199 -0.0001871 0.0001040 -0.0001081 0.0001295 -0.0001728 0.0000460 -0.0000163 0.0000743 -0.0002106 0.0001182 -0.0000702 0.0003698 0.0003479 0.0000863 -0.0000589
-0.0000026 0.0003047 0.0000229 0.0000014 -0.0000300 0.0001340 0.0000403 0.0000978 0.0000013 0.0001731 0.0000473 0.0000671 0.0001246 -0.0001150 -0.0000005 0.0001096 0.0000351 -0.0000149 -0.0000233 0.0000806 0.0000382 -0.0001992 0.0000105 -0.0000381 0.0000121 0.0000762 0.0000376 0.0000016 0.0001213 -0.0001781 0.0001050 -0.0001040 0.0001306 -0.0001667 0.0000470 -0.0000075 0.0000766 -0.0002086 0.0001192 -0.0000636 0.0003625 0.0003576 0.0000938 -0.0000345
-0.0000051 0.0003056 0.0000237 0.0000038 -0.0000309 0.0001350 0.0000145 0.0001267 0.0000016 0.0001763 0.0000435 0.0000547 0.0001335 -0.0001241 0.0000000 0.0001069 0.0000329 -0.0000125 -0.0000220 0.0000819 0.0000426 -0.0002081 0.0000066 -0.0000448 0.0000096 0.0000790 0.0000328 -0.0000302 0.0001223 -0.0001770 0.0001066 -0.0001094 0.0001324 -0.0001778 0.0000473 -0.0000032 0.0000789 -0.0002148 0.0001209 -0.0000679 0.0003582 0.0003591 0.0000996 -0.0000226
-0.0000025 0.0002999 0.0000226 -0.0000004 -0.0000307 0.0001355 0.0000136 0.0001285 -0.0000022 0.0001823 0.0000442 0.0000393 0.0001442 -0.0001352 0.0000003 0.0001052 0.0000336 -0.0000118 -0.0000262 0.0000831 0.0000447 -0.0002179 0.0000018 -0.0000493 0.0000075 0.0000780 0.0000290 -0.0000559 0.0001231 -0.0001808 0.0001085 -0.0001188 0.0001345 -0.0001940 0.0000481 -0.0000014 0.0000816 -0.0002239 0.0001225 -0.0000756 0.0003529 0.0003591 0.0001045 -0.0000147
-0.0000019 0.0002963 0.0000242 -0.0000081 -0.0000262 0.0001292 0.0000249 0.0001281 -0.0000036 0.0001835 0.0000490 0.0000300 0.0001552 -0.0001459 0.0000010 0.0001035 0.0000329 -0.0000098 -0.0000303 0.0000857 0.0000480 -0.0002196 -0.0000016 -0.0000528 0.0000073 0.0000776 0.0000255 -0.0000750 0.0001223 -0.0001754 0.0001094 -0.0001188 0.0001359 -0.0001919 0.0000488 0.0000040 0.0000832 -0.0002227 0.0001239 -0.0000716 0.0003464 0.0003683 0.0001085 0.0000005
-0.0000025 0.0002961 0.0000224 -0.0000072 -0.0000264 0.0001306 0.0000215 0.0001438 -0.0000090 0.0001938 0.0000464 0.0000287 0.0001512 -0.0001425 0.0000039 0.0001009 0.0000307 -0.0000076 -0.0000354 0.0000909 0.0000508 -0.0002159 -0.0000078 -0.0000496 0.0000061 0.0000805 0.0000249 -0.0000862 0.0001221 -0.0001652 0.0001095 -0.0001129 0.0001369 -0.0001834 0.0000477 0.0000136 0.0000846 -0.0002182 0.0001248 -0.0000621 0.0003384 0.0003813 0.0001100 0.0000177
-0.0000117 0.0003037 0.0000207 -0.0000054 -0.0000291 0.0001339 0.0000372 0.0001541 -0.0000083 0.0002043 0.0000457 0.0000298 0.0001554 -0.0001467 0.0000030 0.0001011 0.0000311 -0.0000050 -0.0000373 0.0000934 0.0000528 -0.0002089 -0.0000077 -0.0000516 0.0000054 0.0000829 0.0000221 -0.0000900 0.0001226 -0.0001533 0.0001102 -0.0001056 0.0001375 -0.0001711 0.0000464 0.0000237 0.0000857 -0.0002114 0.0001253 -0.0000498 0.0003326 0.0003962 0.0001109 0.0000350
-0.0000124 0.0003050 0.0000200 -0.0000012 -0.0000287 0.0001328 0.0000462 0.0001596 -0.0000098 0.0002143 0.0000460 0.0000307 0.0001437 -0.0001357 -0.0000002 0.0001038 0.0000308 0.0000002 -0.0000379 0.0000961 0.0000530 -0.0002025 -0.0000065 -0.0000543 0.0000047 0.0000872 0.0000183 -0.0000924 0.0001232 -0.0001425 0.0001109 -0.0001016 0.0001380 -0.0001682 0.0000454 0.0000321 0.0000872 -0.0002111 0.0001254 -0.0000432 0.0003266 0.0004069 0.0001118 0.0000450
-0.0000122 0.0003033 0.0000190 -0.0000011 -0.0000301 0.0001345 0.0000738 0.0001514 -0.0000115 0.0002252 0.0000467 0.0000336 0.0001392 -0.0001312 0.0000026 0.0000996 0.0000348 -0.0000041 -0.0000388 0.0000951 0.0000544 -0.0002057 -0.0000053 -0.0000556 0.0000033 0.0000907 0.0000151 -0.0000951 0.0001241 -0.0001394 0.0001116 -0.0001047 0.0001386 -0.0001769 0.0000451 0.0000365 0.0000890 -0.0002167 0.0001259 -0.0000448 0.0003235 0.0004111 0.0001120 0.0000487
-0.0000154 0.0003014 0.0000183 -0.0000028 -0.0000294 0.0001353 0.0000550 0.0001743 -0.0000120 0.0002248 0.0000463 0.0000320 0.0001467 -0.0001381 0.0000031 0.0000982 0.0000361 -0.0000091 -0.0000367 0.0000922 0.0000574 -0.0002145 -0.0000092 -0.0000553 0.0000033 0.0000889 0.0000142 -0.0000993 0.0001242 -0.0001409 0.0001135 -0.0001127 0.0001398 -0.0001919 0.0000436 0.0000386 0.0000903 -0.0002244 0.0001268 -0.0000508 0.0003176 0.0004156 0.0001124 0.0000466
-0.0000113 0.0002933 0.0000173 -0.0000071 -0.0000289 0.0001356 0.0000339 0.0001982 -0.0000103 0.0002193 0.0000497 0.0000275 0.0001399 -0.0001315 0.0000014 0.0000984 0.0000345 -0.0000066 -0.0000408 0.0000950 0.0000593 -0.0002125 -0.0000070 -0.0000566 0.0000018 0.0000903 0.0000152 -0.0000966 0.0001247 -0.0001355 0.0001146 -0.0001116 0.0001407 -0.0001876 0.0000408 0.0000450 0.0000910 -0.0002218 0.0001269 -0.0000441 0.0003115 0.0004317 0.0001103 0.0000530
-0.0000085 0.0002911 0.0000142 -0.0000009 -0.0000276 0.0001318 0.0000365 0.0002013 -0.0000101 0.0002237 0.0000531 0.0000255 0.0001320 -0.0001233 0.0000017 0.0000974 0.0000346 -0.0000110 -0.0000368 0.0000897 0.0000592 -0.0002052 -0.0000055 -0.0000535 0.0000004 0.0000957 0.0000149 -0.0000853 0.0001239 -0.0001231 0.0001158 -0.0001066 0.0001412 -0.0001776 0.0000382 0.0000521 0.0000918 -0.0002171 0.0001262 -0.0000317 0.0003047 0.0004559 0.0001057 0.0000599
-0.0000051 0.0002864 0.0000133 0.0000036 -0.0000253 0.0001283 0.0000163 0.0002355 -0.0000110 0.0002302 0.0000537 0.0000297 0.0001221 -0.0001130 0.0000000 0.0000964 0.0000354 -0.0000091 -0.0000379 0.0000898 0.0000594 -0.0001971 -0.0000006 -0.0000524 -0.0000003 0.0000996 0.0000166 -0.0000705 0.0001221 -0.0001077 0.0001150 -0.0000968 0.0001405 -0.0001633 0.0000364 0.0000596 0.0000921 -0.0002096 0.0001254 -0.0000173 0.0003006 0.0004821 0.0001007 0.0000657
-0.0000028 0.0002816 0.0000144 0.0000073 -0.0000243 0.0001253 0.0000309 0.0002281 -0.0000122 0.0002330 0.0000548 0.0000358 0.0001084 -0.0000996 0.0000003 0.0000949 0.0000318 -0.0000062 -0.0000354 0.0000841 0.0000602 -0.0001994 0.0000047 -0.0000510 -0.0000008 0.0001024 0.0000149 -0.0000517 0.0001205 -0.0000974 0.0001149 -0.0000958 0.0001402 -0.0001673 0.0000345 0.0000630 0.0000930 -0.0002127 0.0001251 -0.0000153 0.0002937 0.0005035 0.0000950 0.0000607
-0.0000016 0.0002798 0.0000123 0.0000069 -0.0000217 0.0001206 0.0000020 0.0002546 -0.0000108 0.0002319 0.0000605 0.0000390 0.0001044 -0.0000950 -0.0000010 0.0000917 0.0000326 -0.0000128 -0.0000317 0.0000771 0.0000607 -0.0002082 0.0000016 -0.0000430 -0.0000016 0.0001018 0.0000190 -0.0000384 0.0001200 -0.0000960 0.0001165 -0.0001023 0.0001404 -0.0001797 0.0000331 0.0000621 0.0000938 -0.0002194 0.0001247 -0.0000190 0.0002895 0.0005159 0.0000898 0.0000487
0.0000029 0.0002688 0.0000172 -0.0000037 -0.0000197 0.0001128 0.0000127 0.0002508 -0.0000128 0.0002327 0.0000626 0.0000397 0.0000938 -0.0000847 -0.0000000 0.0000849 0.0000356 -0.0000207 -0.0000285 0.0000693 0.0000631 -0.0002221 0.0000023 -0.0000391 -0.0000016 0.0000974 0.0000190 -0.0000223 0.0001190 -0.0000972 0.0001171 -0.0001132 0.0001407 -0.0001981 0.0000319 0.0000595 0.0000946 -0.0002295 0.0001246 -0.0000277 0.0002855 0.0005252 0.0000845 0.0000334
-0.0000032 0.0002656 0.0000180 -0.0000112 -0.0000195 0.0001124 0.0000192 0.0002501 -0.0000167 0.0002278 0.0000585 0.0000453 0.0000824 -0.0000735 0.0000034 0.0000795 0.0000328 -0.0000231 -0.0000205 0.0000620 0.0000638 -0.0002245 0.0000031 -0.0000355 -0.0000010 0.0000938 0.0000160 -0.0000029 0.0001165 -0.0000919 0.0001190 -0.0001162 0.0001411 -0.0001974 0.0000300 0.0000601 0.0000948 -0.0002291 0.0001239 -0.0000237 0.0002821 0.0005411 0.0000792 0.0000285
-0.0000005 0.0002602 0.0000206 -0.0000154 -0.0000175 0.0001081 0.0000140 0.0002609 -0.0000195 0.0002325 0.0000583 0.0000527 0.0000792 -0.0000697 0.0000037 0.0000774 0.0000307 -0.0000229 -0.0000318 0.0000664 0.0000650 -0.0002221 0.0000011 -0.0000304 0.0000004 0.0000913 0.0000187 0.0000148 0.0001150 -0.0000814 0.0001200 -0.0001135 0.0001410 -0.0001915 0.0000274 0.0000628 0.0000944 -0.0002259 0.0001227 -0.0000150 0.0002765 0.0005605 0.0000729 0.0000267
-0.0000019 0.0002572 0.0000175 -0.0000124 -0.0000202 0.0001081 0.0000316 0.0002495 -0.0000211 0.0002285 0.0000582 0.0000624 0.0000623 -0.0000533 0.0000026 0.0000719 0.0000312 -0.0000234 -0.0000312 0.0000636 0.0000649 -0.0002178 -0.0000009 -0.0000232 -0.0000000 0.0000913 0.0000217 0.0000316 0.0001138 -0.0000682 0.0001209 -0.0001093 0.0001408 -0.0001863 0.0000259 0.0000649 0.0000944 -0.0002254 0.0001210 -0.0000072 0.0002721 0.0005810 0.0000673 0.0000205
-0.0000027 0.0002485 0.0000209 -0.0000187 -0.0000201 0.0001049 0.0000177 0.0002672 -0.0000189 0.0002191 0.0000569 0.0000728 0.0000574 -0.0000481 0.0000023 0.0000658 0.0000277 -0.0000231 -0.0000300 0.0000567 0.0000652 -0.0002225 0.0000058 -0.0000239 -0.0000011 0.0000898 0.0000216 0.0000490 0.0001106 -0.0000648 0.0001230 -0.0001161 0.0001407 -0.0001972 0.0000251 0.0000620 0.0000946 -0.0002323 0.0001208 -0.0000113 0.0002736 0.0005881 0.0000624 0.0000050
-0.0000089 0.0002430 0.0000217 -0.0000254 -0.0000192 0.0000970 -0.0000128 0.0002802 -0.0000212 0.0002112 0.0000559 0.0000773 0.0000617 -0.0000518 -0.0000022 0.0000626 0.0000275 -0.0000310 -0.0000306 0.0000506 0.0000648 -0.0002308 0.0000065 -0.0000215 0.0000002 0.0000843 0.0000263 0.0000588 0.0001097 -0.0000695 0.0001245 -0.0001273 0.0001414 -0.0002152 0.0000242 0.0000559 0.0000950 -0.0002430 0.0001200 -0.0000195 0.0002702 0.0005921 0.0000589 -0.0000129
-0.0000050 0.0002275 0.0000215 -0.0000386 -0.0000193 0.0000928 -0.0000066 0.0002662 -0.0000178 0.0001908 0.0000478 0.0000805 0.0000662 -0.0000566 -0.0000018 0.0000537 0.0000301 -0.0000387 -0.0000287 0.0000407 0.0000678 -0.0002476 0.0000108 -0.0000252 -0.0000003 0.0000785 0.0000278 0.0000623 0.0001090 -0.0000788 0.0001263 -0.0001421 0.0001428 -0.0002388 0.0000238 0.0000494 0.0000959 -0.0002558 0.0001200 -0.0000319 0.0002670 0.0005870 0.0000571 -0.0000271
-0.0000040 0.0002156 0.0000210 -0.0000552 -0.0000201 0.0000903 -0.0000184 0.0002591 -0.0000209 0.0001832 0.0000471 0.0000748 0.0000734 -0.0000637 0.0000003 0.0000485 0.0000347 -0.0000486 -0.0000269 0.0000337 0.0000673 -0.0002503 0.0000098 -0.0000251 -0.0000018 0.0000740 0.0000295 0.0000608 0.0001089 -0.0000803 0.0001277 -0.0001481 0.0001438 -0.0002436 0.0000229 0.0000471 0.0000961 -0.0002592 0.0001191 -0.0000323 0.0002638 0.0005874 0.0000574 -0.0000290
-0.0000057 0.0002080 0.0000247 -0.0000684 -0.0000190 0.0000871 -0.0000268 0.0002559 -0.0000233 0.0001781 0.0000434 0.0000721 0.0000782 -0.0000688 0.0000002 0.0000456 0.0000381 -0.0000557 -0.0000277 0.0000322 0.0000685 -0.0002521 0.0000099 -0.0000280 -0.0000009 0.0000697 0.0000299 0.0000551 0.0001080 -0.0000778 0.0001291 -0.0001517 0.0001447 -0.0002457 0.0000222 0.0000460 0.0000957 -0.0002606 0.0001182 -0.0000306 0.0002562 0.0005927 0.0000591 -0.0000269
-0.0000018 0.0001990 0.0000286 -0.0000789 -0.0000193 0.0000845 -0.0000231 0.0002415 -0.0000241 0.0001721 0.0000337 0.0000735 0.0000845 -0.0000752 0.0000006 0.0000429 0.0000417 -0.0000581 -0.0000229 0.0000270 0.0000667 -0.0002486 0.0000099 -0.0000315 -0.0000028 0.0000681 0.0000290 0.0000468 0.0001075 -0.0000759 0.0001297 -0.0001554 0.0001455 -0.0002521 0.0000221 0.0000431 0.0000964 -0.0002669 0.0001169 -0.0000326 0.0002549 0.0005905 0.0000611 -0.0000293
0.0000021 0.0001872 0.0000309 -0.0000899 -0.0000197 0.0000782 -0.0000204 0.0002300 -0.0000224 0.0001577 0.0000300 0.0000702 0.0001022 -0.0000929 -0.0000002 0.0000373 0.0000433 -0.0000627 -0.0000229 0.0000255 0.0000678 -0.0002613 0.0000090 -0.0000365 -0.0000017 0.0000617 0.0000304 0.0000349 0.0001063 -0.0000838 0.0001338 -0.0001720 0.0001468 -0.0002738 0.0000237 0.0000339 0.0000973 -0.0002814 0.0001169 -0.0000462 0.0002541 0.0005829 0.0000642 -0.0000413
0.0000089 0.0001681 0.0000369 -0.0001110 -0.0000136 0.0000611 -0.0000157 0.0002066 -0.0000295 0.0001421 0.0000325 0.0000557 0.0001159 -0.0001065 0.0000027 0.0000263 0.0000459 -0.0000698 -0.0000199 0.0000157 0.0000734 -0.0002850 0.0000098 -0.0000427 -0.0000009 0.0000532 0.0000328 0.0000185 0.0001059 -0.0000975 0.0001359 -0.0001907 0.0001488 -0.0003018 0.0000253 0.0000225 0.0000986 -0.0002992 0.0001175 -0.0000642 0.0002505 0.0005705 0.0000682 -0.0000571
0.0000093 0.0001513 0.0000382 -0.0001297 -0.0000128 0.0000568 0.0000117 0.0001693 -0.0000309 0.0001152 0.0000340 0.0000381 0.0001382 -0.0001286 0.0000053 0.0000149 0.0000422 -0.0000789 -0.0000266 0.0000116 0.0000773 -0.0003041 0.0000096 -0.0000479 -0.0000009 0.0000439 0.0000313 0.0000058 0.0001037 -0.0001117 0.0001384 -0.0002091 0.0001512 -0.0003235 0.0000267 0.0000114 0.0000999 -0.0003128 0.0001182 -0.0000786 0.0002471 0.0005604 0.0000725 -0.0000696
0.0000046 0.0001429 0.0000392 -0.0001457 -0.0000132 0.0000488 -0.0000075 0.0001711 -0.0000284 0.0000916 0.0000324 0.0000257 0.0001547 -0.0001444 0.0000047 0.0000067 0.0000403 -0.0000792 -0.0000238 0.0000035 0.0000810 -0.0003143 0.0000115 -0.0000527 -0.0000008 0.0000353 0.0000320 -0.0000043 0.0001041 -0.0001196 0.0001403 -0.0002180 0.0001534 -0.0003332 0.0000268 0.0000047 0.0001003 -0.0003196 0.0001189 -0.0000851 0.0002470 0.0005492 0.0000763 -0.0000776
0.0000088 0.0001296 0.0000421 -0.0001580 -0.0000133 0.0000401 -0.0000078 0.0001511 -0.0000327 0.0000805 0.0000300 0.0000208 0.0001690 -0.0001586 0.0000050 -0.0000008 0.0000401 -0.0000839 -0.0000246 -0.0000018 0.0000815 -0.0003211 0.0000145 -0.0000572 -0.0000002 0.0000302 0.0000315 -0.0000108 0.0001044 -0.0001247 0.0001427 -0.0002254 0.0001551 -0.0003393 0.0000274 -0.0000018 0.0001009 -0.0003253 0.0001196 -0.0000892 0.0002466 0.0005410 0.0000796 -0.0000854
0.0000076 0.0001193 0.0000469 -0.0001714 -0.0000163 0.0000366 0.0000076 0.0001296 -0.0000346 0.0000743 0.0000278 0.0000200 0.0001913 -0.0001801 0.0000078 -0.0000108 0.0000413 -0.0000868 -0.0000204 -0.0000110 0.0000847 -0.0003260 0.0000120 -0.0000568 0.0000031 0.0000220 0.0000315 -0.0000125 0.0001050 -0.0001275 0.0001454 -0.0002310 0.0001567 -0.0003449 0.0000290 -0.0000080 0.0001022 -0.0003331 0.0001204 -0.0000943 0.0002477 0.0005343 0.0000830 -0.0000960
0.0000088 0.0001049 0.0000504 -0.0001878 -0.0000169 0.0000343 -0.0000135 0.0001309 -0.0000313 0.0000530 0.0000214 0.0000251 0.0002067 -0.0001950 0.0000104 -0.0000210 0.0000442 -0.0000912 -0.0000252 -0.0000139 0.0000882 -0.0003435 0.0000105 -0.0000595 0.0000055 0.0000127 0.0000326 -0.0000172 0.0001061 -0.0001394 0.0001475 -0.0002457 0.0001589 -0.0003701 0.0000318 -0.0000205 0.0001036 -0.0003503 0.0001226 -0.0001130 0.0002515 0.0005159 0.0000878 -0.0001175
0.0000052 0.0000922 0.0000528 -0.0002061 -0.0000157 0.0000257 -0.0000105 0.0001062 -0.0000214 0.0000229 0.0000203 0.0000225 0.0002165 -0.0002053 0.0000108 -0.0000278 0.0000457 -0.0001008 -0.0000238 -0.0000206 0.0000944 -0.0003686 0.0000062 -0.0000599 0.0000082 0.0000003 0.0000359 -0.0000259 0.0001079 -0.0001588 0.0001517 -0.0002685 0.0001620 -0.0004038 0.0000343 -0.0000352 0.0001065 -0.0003732 0.0001250 -0.0001376 0.0002531 0.0004944 0.0000936 -0.0001428
0.0000036 0.0000818 0.0000567 -0.0002284 -0.0000163 0.0000203 -0.0000187 0.0000957 -0.0000180 -0.0000012 0.0000204 0.0000169 0.0002312 -0.0002195 0.0000128 -0.0000361 0.0000533 -0.0001159 -0.0000163 -0.0000329 0.0000961 -0.0003810 0.0000049 -0.0000603 0.0000092 -0.0000088 0.0000393 -0.0000334 0.0001101 -0.0001750 0.0001558 -0.0002839 0.0001649 -0.0004206 0.0000370 -0.0000468 0.0001083 -0.0003861 0.0001279 -0.0001514 0.0002555 0.0004780 0.0000995 -0.0001589
0.0000027 0.0000678 0.0000608 -0.0002473 -0.0000143 0.0000084 -0.0000227 0.0000805 -0.0000186 -0.0000214 0.0000208 0.0000150 0.0002414 -0.0002297 0.0000172 -0.0000438 0.0000566 -0.0001233 -0.0000208 -0.0000346 0.0001017 -0.0003906 0.0000066 -0.0000619 0.0000108 -0.0000137 0.0000415 -0.0000381 0.0001114 -0.0001830 0.0001590 -0.0002925 0.0001677 -0.0004305 0.0000396 -0.0000552 0.0001103 -0.0003959 0.0001303 -0.0001606 0.0002578 0.0004674 0.0001047 -0.0001698
0.0000062 0.0000587 0.0000635 -0.0002571 -0.0000172 0.0000124 -0.0000378 0.0000771 -0.0000137 -0.0000428 0.0000197 0.0000190 0.0002499 -0.0002380 0.0000181 -0.0000488 0.0000591 -0.0001274 -0.0000164 -0.0000415 0.0001057 -0.0003968 0.0000097 -0.0000644 0.0000137 -0.0000199 0.0000443 -0.0000428 0.0001142 -0.0001899 0.0001626 -0.0002974 0.0001703 -0.0004363 0.0000426 -0.0000627 0.0001122 -0.0004034 0.0001322 -0.0001666 0.0002613 0.0004592 0.0001102 -0.0001784
0.0000069 0.0000496 0.0000690 -0.0002687 -0.0000176 0.0000052 -0.0000607 0.0000746 -0.0000055 -0.0000568 0.0000214 0.0000175 0.0002696 -0.0002569 0.0000189 -0.0000550 0.0000682 -0.0001379 -0.0000283 -0.0000395 0.0001092 -0.0004030 0.0000111 -0.0000657 0.0000162 -0.0000228 0.0000493 -0.0000474 0.0001177 -0.0001971 0.0001652 -0.0003014 0.0001723 -0.0004408 0.0000457 -0.0000687 0.0001145 -0.0004100 0.0001342 -0.0001721 0.0002657 0.0004533 0.0001154 -0.0001853
0.0000078 0.0000423 0.0000720 -0.0002757 -0.0000160 -0.0000005 -0.0000513 0.0000623 0.0000024 -0.0000746 0.0000177 0.0000204 0.0002818 -0.0002683 0.0000199 -0.0000601 0.0000677 -0.0001409 -0.0000170 -0.0000525 0.0001135 -0.0004181 0.0000118 -0.0000655 0.0000187 -0.0000274 0.0000521 -0.0000514 0.0001196 -0.0002055 0.0001677 -0.0003114 0.0001748 -0.0004597 0.0000492 -0.0000783 0.0001171 -0.0004251 0.0001374 -0.0001885 0.0002717 0.0004391 0.0001216 -0.0002021
0.0000120 0.0000296 0.0000769 -0.0002872 -0.0000145 -0.0000058 -0.0000325 0.0000380 0.0000106 -0.0000979 0.0000198 0.0000142 0.0003046 -0.0002897 0.0000230 -0.0000684 0.0000683 -0.0001480 -0.0000208 -0.0000565 0.0001199 -0.0004426 0.0000157 -0.0000693 0.0000220 -0.0000356 0.0000503 -0.0000541 0.0001231 -0.0002252 0.0001707 -0.0003275 0.0001774 -0.0004843 0.0000516 -0.0000888 0.0001202 -0.0004417 0.0001404 -0.0002082 0.0002744 0.0004247 0.0001276 -0.0002186
0.0000132 0.0000205 0.0000798 -0.0003004 -0.0000119 -0.0000123 -0.0000356 0.0000309 0.0000148 -0.0001149 0.0000274 0.0000020 0.0003124 -0.0002975 0.0000215 -0.0000706 0.0000740 -0.0001577 -0.0000157 -0.0000639 0.0001250 -0.0004552 0.0000166 -0.0000701 0.0000250 -0.0000416 0.0000549 -0.0000603 0.0001267 -0.0002353 0.0001730 -0.0003349 0.0001802 -0.0004943 0.0000544 -0.0000963 0.0001231 -0.0004512 0.0001433 -0.0002187 0.0002754 0.0004150 0.0001338 -0.0002274
0.0000171 0.0000141 0.0000835 -0.0003101 -0.0000096 -0.0000181 -0.0000315 0.0000156 0.0000167 -0.0001284 0.0000296 -0.0000033 0.0003250 -0.0003094 0.0000251 -0.0000760 0.0000742 -0.0001593 -0.0000154 -0.0000668 0.0001296 -0.0004648 0.0000157 -0.0000680 0.0000261 -0.0000439 0.0000538 -0.0000603 0.0001297 -0.0002407 0.0001747 -0.0003383 0.0001825 -0.0004995 0.0000576 -0.0001020 0.0001263 -0.0004589 0.0001464 -0.0002258 0.0002786 0.0004077 0.0001392 -0.0002316
0.0000168 0.0000106 0.0000924 -0.0003192 -0.0000110 -0.0000221 -0.0000322 0.0000111 0.0000212 -0.0001396 0.0000378 -0.0000078 0.0003366 -0.0003201 0.0000260 -0.0000788 0.0000707 -0.0001545 -0.0000163 -0.0000668 0.0001326 -0.0004693 0.0000146 -0.0000634 0.0000279 -0.0000441 0.0000556 -0.0000626 0.0001336 -0.0002429 0.0001769 -0.0003397 0.0001843 -0.0005002 0.0000602 -0.0001053 0.0001288 -0.0004640 0.0001487 -0.0002299 0.0002831 0.0004035 0.0001446 -0.0002352
0.0000115 0.0000122 0.0000950 -0.0003180 -0.0000082 -0.0000295 -0.0000171 0.0000026 0.0000281 -0.0001534 0.0000426 -0.0000088 0.0003366 -0.0003202 0.0000264 -0.0000805 0.0000728 -0.0001533 -0.0000130 -0.0000700 0.0001383 -0.0004744 0.0000133 -0.0000596 0.0000328 -0.0000485 0.0000568 -0.0000617 0.0001364 -0.0002444 0.0001790 -0.0003394 0.0001862 -0.0005021 0.0000634 -0.0001078 0.0001318 -0.0004695 0.0001515 -0.0002349 0.0002853 0.0004029 0.0001500 -0.0002381
0.0000116 0.0000119 0.0000979 -0.0003173 -0.0000051 -0.0000375 0.0000014 0.0000023 0.0000370 -0.0001629 0.0000396 -0.0000061 0.0003383 -0.0003215 0.0000283 -0.0000844 0.0000748 -0.0001510 -0.0000123 -0.0000714 0.0001422 -0.0004797 0.0000119 -0.0000579 0.0000336 -0.0000482 0.0000586 -0.0000630 0.0001382 -0.0002451 0.0001812 -0.0003392 0.0001876 -0.0005047 0.0000670 -0.0001122 0.0001350 -0.0004769 0.0001541 -0.0002411 0.0002930 0.0003955 0.0001545 -0.0002424
0.0000121 0.0000069 0.0000992 -0.0003161 -0.0000046 -0.0000437 0.0000181 -0.0000181 0.0000422 -0.0001816 0.0000434 -0.0000091 0.0003488 -0.0003316 0.0000301 -0.0000901 0.0000769 -0.0001544 -0.0000084 -0.0000756 0.0001490 -0.0004994 0.0000137 -0.0000581 0.0000369 -0.0000523 0.0000623 -0.0000664 0.0001405 -0.0002540 0.0001837 -0.0003456 0.0001896 -0.0005165 0.0000694 -0.0001177 0.0001384 -0.0004866 0.0001572 -0.0002528 0.0002982 0.0003887 0.0001600 -0.0002484
0.0000110 0.0000030 0.0000980 -0.0003118 -0.0000031 -0.0000464 0.0000205 -0.0000238 0.0000492 -0.0001967 0.0000422 -0.0000110 0.0003514 -0.0003340 0.0000314 -0.0000934 0.0000822 -0.0001595 -0.0000064 -0.0000806 0.0001498 -0.0005013 0.0000179 -0.0000598 0.0000382 -0.0000544 0.0000628 -0.0000678 0.0001437 -0.0002548 0.0001851 -0.0003446 0.0001914 -0.0005164 0.0000711 -0.0001196 0.0001411 -0.0004899 0.0001597 -0.0002567 0.0002988 0.0003892 0.0001655 -0.0002490
0.0000128 0.0000026 0.0000959 -0.0002994 -0.0000045 -0.0000453 0.0000092 -0.0000212 0.0000620 -0.0002105 0.0000379 -0.0000061 0.0003421 -0.0003251 0.0000305 -0.0000943 0.0000830 -0.0001586 -0.0000076 -0.0000799 0.0001475 -0.0004959 0.0000171 -0.0000560 0.0000391 -0.0000539 0.0000646 -0.0000681 0.0001468 -0.0002541 0.0001864 -0.0003411 0.0001927 -0.0005148 0.0000728 -0.0001197 0.0001437 -0.0004923 0.0001619 -0.0002593 0.0003035 0.0003889 0.0001695 -0.0002471
0.0000114 0.0000082 0.0000977 -0.0002928 -0.0000039 -0.0000485 -0.0000009 -0.0000090 0.0000702 -0.0002116 0.0000355 0.0000024 0.0003398 -0.0003228 0.0000337 -0.0000942 0.0000899 -0.0001590 -0.0000039 -0.0000794 0.0001490 -0.0004951 0.0000187 -0.0000541 0.0000419 -0.0000537 0.0000677 -0.0000695 0.0001493 -0.0002515 0.0001877 -0.0003350 0.0001934 -0.0005101 0.0000749 -0.0001181 0.0001463 -0.0004929 0.0001637 -0.0002599 0.0003106 0.0003863 0.0001734 -0.0002434
0.0000162 0.0000091 0.0000991 -0.0002820 -0.0000030 -0.0000467 0.0000219 -0.0000279 0.0000776 -0.0002214 0.0000383 0.0000049 0.0003313 -0.0003152 0.0000348 -0.0000913 0.0000913 -0.0001579 -0.0000073 -0.0000750 0.0001490 -0.0004927 0.0000173 -0.0000499 0.0000441 -0.0000502 0.0000696 -0.0000688 0.0001506 -0.0002472 0.0001889 -0.0003302 0.0001945 -0.0005071 0.0000767 -0.0001161 0.0001495 -0.0004948 0.0001661 -0.0002615 0.0003126 0.0003899 0.0001768 -0.0002404
0.0000135 0.0000177 0.0001014 -0.0002748 -0.0000008 -0.0000493 0.0000171 -0.0000188 0.0000830 -0.0002247 0.0000404 0.0000076 0.0003078 -0.0002933 0.0000377 -0.0000914 0.0000925 -0.0001509 -0.0000057 -0.0000754 0.0001514 -0.0004917 0.0000188 -0.0000477 0.0000469 -0.0000495 0.0000704 -0.0000670 0.0001527 -0.0002435 0.0001904 -0.0003252 0.0001954 -0.0005037 0.0000789 -0.0001146 0.0001526 -0.0004962 0.0001676 -0.0002618 0.0003169 0.0003901 0.0001799 -0.0002368
0.0000100 0.0000273 0.0001013 -0.0002631 0.0000053 -0.0000554 -0.0000067 0.0000015 0.0000880 -0.0002303 0.0000436 0.0000091 0.0003001 -0.0002858 0.0000373 -0.0000885 0.0000950 -0.0001528 -0.0000082 -0.0000741 0.0001528 -0.0005000 0.0000232 -0.0000489 0.0000466 -0.0000464 0.0000750 -0.0000705 0.0001543 -0.0002448 0.0001907 -0.0003273 0.0001962 -0.0005139 0.0000809 -0.0001160 0.0001555 -0.0005032 0.0001696 -0.0002707 0.0003191 0.0003874 0.0001836 -0.0002404
0.0000120 0.0000318 0.0001037 -0.0002543 0.0000079 -0.0000597 0.0000228 -0.0000141 0.0000921 -0.0002342 0.0000481 0.0000062 0.0002931 -0.0002793 0.0000379 -0.0000862 0.0000947 -0.0001503 -0.0000081 -0.0000749 0.0001552 -0.0004995 0.0000265 -0.0000474 0.0000470 -0.0000434 0.0000791 -0.0000722 0.0001568 -0.0002432 0.0001913 -0.0003220 0.0001967 -0.0005077 0.0000819 -0.0001127 0.0001580 -0.0005017 0.0001709 -0.0002692 0.0003184 0.0003939 0.0001865 -0.0002346
0.0000193 0.0000380 0.0001042 -0.0002394 0.0000064 -0.0000569 0.0000300 -0.0000146 0.0000936 -0.0002321 0.0000507 0.0000115 0.0002927 -0.0002784 0.0000371 -0.0000819 0.0000937 -0.0001435 -0.0000012 -0.0000784 0.0001561 -0.0004952 0.0000301 -0.0000450 0.0000466 -0.0000349 0.0000782 -0.0000675 0.0001590 -0.0002367 0.0001919 -0.0003139 0.0001973 -0.0004983 0.0000823 -0.0001076 0.0001600 -0.0004979 0.0001720 -0.0002651 0.0003172 0.0004024 0.0001879 -0.0002260
0.0000201 0.0000445 0.0001038 -0.0002210 0.0000050 -0.0000533 0.0000324 -0.0000099 0.0000978 -0.0002279 0.0000526 0.0000160 0.0002872 -0.0002725 0.0000352 -0.0000733 0.0000917 -0.0001335 0.0000027 -0.0000764 0.0001586 -0.0004882 0.0000286 -0.0000405 0.0000491 -0.0000307 0.0000814 -0.0000656 0.0001612 -0.0002282 0.0001917 -0.0003030 0.0001975 -0.0004849 0.0000829 -0.0001011 0.0001622 -0.0004923 0.0001723 -0.0002581 0.0003153 0.0004150 0.0001894 -0.0002157
0.0000202 0.0000565 0.0001053 -0.0002005 0.0000043 -0.0000466 0.0000543 -0.0000258 0.0001053 -0.0002244 0.0000597 0.0000140 0.0002777 -0.0002632 0.0000308 -0.0000638 0.0000949 -0.0001283 0.0000049 -0.0000744 0.0001565 -0.0004767 0.0000320 -0.0000381 0.0000493 -0.0000244 0.0000826 -0.0000624 0.0001608 -0.0002176 0.0001912 -0.0002919 0.0001973 -0.0004714 0.0000841 -0.0000946 0.0001639 -0.0004858 0.0001726 -0.0002516 0.0003156 0.0004249 0.0001907 -0.0002067
0.0000199 0.0000682 0.0001028 -0.0001802 0.0000064 -0.0000493 0.0000397 -0.0000065 0.0001086 -0.0002151 0.0000653 0.0000160 0.0002778 -0.0002626 0.0000291 -0.0000567 0.0000929 -0.0001192 -0.0000025 -0.0000643 0.0001560 -0.0004679 0.0000292 -0.0000311 0.0000501 -0.0000179 0.0000852 -0.0000573 0.0001602 -0.0002068 0.0001893 -0.0002807 0.0001970 -0.0004580 0.0000837 -0.0000869 0.0001658 -0.0004792 0.0001734 -0.0002450 0.0003130 0.0004360 0.0001910 -0.0001971
0.0000293 0.0000752 0.0000998 -0.0001598 0.0000056 -0.0000457 0.0000528 -0.0000049 0.0001075 -0.0002060 0.0000682 0.0000250 0.0002679 -0.0002526 0.0000282 -0.0000511 0.0000901 -0.0001110 0.0000070 -0.0000670 0.0001542 -0.0004656 0.0000300 -0.0000254 0.0000506 -0.0000130 0.0000865 -0.0000533 0.0001591 -0.0002002 0.0001892 -0.0002784 0.0001969 -0.0004609 0.0000830 -0.0000821 0.0001677 -0.0004824 0.0001745 -0.0002494 0.0003112 0.0004413 0.0001920 -0.0001976
0.0000304 0.0000840 0.0000996 -0.0001457 0.0000057 -0.0000418 0.0000554 -0.0000049 0.0001098 -0.0002047 0.0000753 0.0000256 0.0002561 -0.0002411 0.0000275 -0.0000437 0.0000953 -0.0001137 0.0000038 -0.0000626 0.0001535 -0.0004609 0.0000333 -0.0000249 0.0000501 -0.0000083 0.0000882 -0.0000507 0.0001598 -0.0001986 0.0001884 -0.0002746 0.0001970 -0.0004561 0.0000825 -0.0000769 0.0001691 -0.0004789 0.0001754 -0.0002485 0.0003069 0.0004504 0.0001927 -0.0001921
0.0000322 0.0000963 0.0000963 -0.0001280 0.0000066 -0.0000395 0.0000223 0.0000248 0.0001129 -0.0001970 0.0000728 0.0000359 0.0002462 -0.0002314 0.0000261 -0.0000327 0.0000962 -0.0001077 0.0000119 -0.0000640 0.0001499 -0.0004471 0.0000295 -0.0000168 0.0000491 -0.0000001 0.0000928 -0.0000492 0.0001585 -0.0001874 0.0001871 -0.0002643 0.0001968 -0.0004426 0.0000827 -0.0000693 0.0001702 -0.0004709 0.0001756 -0.0002414 0.0003050 0.0004630 0.0001930 -0.0001820
0.0000340 0.0001105 0.0000954 -0.0001068 0.0000066 -0.0000344 0.0000400 0.0000189 0.0001182 -0.0001874 0.0000708 0.0000489 0.0002390 -0.0002237 0.0000236 -0.0000220 0.0000954 -0.0000953 0.0000091 -0.0000550 0.0001480 -0.0004348 0.0000246 -0.0000071 0.0000481 0.0000089 0.0000933 -0.0000434 0.0001590 -0.0001761 0.0001850 -0.0002513 0.0001960 -0.0004254 0.0000818 -0.0000589 0.0001707 -0.0004605 0.0001750 -0.0002314 0.0003014 0.0004767 0.0001931 -0.0001692
0.0000364 0.0001261 0.0000921 -0.0000805 0.0000074 -0.0000281 0.0000334 0.0000376 0.0001215 -0.0001707 0.0000677 0.0000652 0.0002144 -0.0002002 0.0000213 -0.0000102 0.0000986 -0.0000891 0.0000073 -0.0000483 0.0001463 -0.0004205 0.0000237 -0.0000019 0.0000485 0.0000162 0.0000944 -0.0000381 0.0001576 -0.0001617 0.0001837 -0.0002380 0.0001954 -0.0004073 0.0000801 -0.0000473 0.0001711 -0.0004489 0.0001742 -0.0002208 0.0002978 0.0004931 0.0001927 -0.0001562
0.0000363 0.0001431 0.0000872 -0.0000537 0.0000078 -0.0000177 0.0000407 0.0000456 0.0001161 -0.0001475 0.0000671 0.0000708 0.0001998 -0.0001860 0.0000211 -0.0000008 0.0001004 -0.0000864 0.0000069 -0.0000427 0.0001455 -0.0004069 0.0000240 0.0000004 0.0000498 0.0000212 0.0000969 -0.0000329 0.0001547 -0.0001473 0.0001818 -0.0002238 0.0001944 -0.0003894 0.0000793 -0.0000369 0.0001716 -0.0004376 0.0001733 -0.0002096 0.0002952 0.0005086 0.0001919 -0.0001422
0.0000446 0.0001545 0.0000863 -0.0000303 0.0000086 -0.0000109 0.0000605 0.0000527 0.0001172 -0.0001300 0.0000658 0.0000791 0.0001879 -0.0001742 0.0000176 0.0000118 0.0000973 -0.0000785 0.0000067 -0.0000362 0.0001421 -0.0003946 0.0000254 0.0000017 0.0000483 0.0000310 0.0000984 -0.0000299 0.0001516 -0.0001347 0.0001791 -0.0002155 0.0001933 -0.0003838 0.0000780 -0.0000286 0.0001722 -0.0004333 0.0001726 -0.0002064 0.0002887 0.0005222 0.0001916 -0.0001375
0.0000481 0.0001637 0.0000856 -0.0000140 0.0000065 -0.0000022 0.0000327 0.0000778 0.0001161 -0.0001219 0.0000711 0.0000856 0.0001872 -0.0001732 0.0000165 0.0000204 0.0000932 -0.0000733 0.0000055 -0.0000313 0.0001402 -0.0003940 0.0000252 0.0000054 0.0000481 0.0000355 0.0000980 -0.0000272 0.0001523 -0.0001366 0.0001777 -0.0002170 0.0001928 -0.0003903 0.0000769 -0.0000233 0.0001729 -0.0004340 0.0001729 -0.0002118 0.0002831 0.0005293 0.0001918 -0.0001373
0.0000486 0.0001762 0.0000847 -0.0000012 0.0000072 0.0000057 0.0000299 0.0000860 0.0001144 -0.0001017 0.0000762 0.0000838 0.0001705 -0.0001571 0.0000157 0.0000289 0.0000921 -0.0000694 -0.0000030 -0.0000238 0.0001382 -0.0003808 0.0000248 0.0000104 0.0000475 0.0000428 0.0000983 -0.0000245 0.0001522 -0.0001308 0.0001765 -0.0002115 0.0001921 -0.0003803 0.0000762 -0.0000147 0.0001726 -0.0004258 0.0001728 -0.0002064 0.0002773 0.0005411 0.0001911 -0.0001288
0.0000489 0.0001942 0.0000873 0.0000112 0.0000079 0.0000107 0.0000347 0.0000943 0.0001102 -0.0000787 0.0000837 0.0000841 0.0001585 -0.0001451 0.0000149 0.0000442 0.0000886 -0.0000583 -0.0000053 -0.0000141 0.0001390 -0.0003719 0.0000257 0.0000141 0.0000475 0.0000504 0.0000965 -0.0000186 0.0001519 -0.0001222 0.0001743 -0.0002032 0.0001912 -0.0003679 0.0000763 -0.0000053 0.0001721 -0.0004158 0.0001723 -0.0001981 0.0002696 0.0005567 0.0001904 -0.0001177
0.0000534 0.0002050 0.0000871 0.0000248 0.0000073 0.0000199 0.0000272 0.0001182 0.0001032 -0.0000529 0.0000954 0.0000818 0.0001521 -0.0001384 0.0000131 0.0000566 0.0000913 -0.0000543 -0.0000050 -0.0000086 0.0001402 -0.0003619 0.0000289 0.0000141 0.0000471 0.0000583 0.0000958 -0.0000129 0.0001490 -0.0001080 0.0001719 -0.0001919 0.0001901 -0.0003505 0.0000747 0.0000066 0.0001716 -0.0004040 0.0001712 -0.0001865 0.0002644 0.0005720 0.0001900 -0.0001060
0.0000590 0.0002164 0.0000875 0.0000410 0.0000064 0.0000300 0.0000558 0.0001042 0.0001046 -0.0000382 0.0001025 0.0000855 0.0001418 -0.0001281 0.0000090 0.0000694 0.0000867 -0.0000430 -0.0000067 -0.0000030 0.0001363 -0.0003452 0.0000321 0.0000152 0.0000455 0.0000678 0.0000963 -0.0000081 0.0001472 -0.0000949 0.0001696 -0.0001802 0.0001888 -0.0003334 0.0000727 0.0000178 0.0001711 -0.0003919 0.0001700 -0.0001748 0.0002532 0.0005928 0.0001882 -0.0000926
0.0000577 0.0002338 0.0000859 0.0000599 0.0000050 0.0000375 0.0000527 0.0001235 0.0001047 -0.0000157 0.0001019 0.0000998 0.0001282 -0.0001143 0.0000058 0.0000824 0.0000857 -0.0000303 -0.0000045 0.0000014 0.0001328 -0.0003278 0.0000341 0.0000159 0.0000447 0.0000745 0.0000972 -0.0000037 0.0001454 -0.0000826 0.0001682 -0.0001706 0.0001872 -0.0003201 0.0000716 0.0000269 0.0001699 -0.0003833 0.0001690 -0.0001668 0.0002457 0.0006095 0.0001867 -0.0000836
0.0000580 0.0002435 0.0000811 0.0000776 0.0000027 0.0000479 0.0000737 0.0001202 0.0001088 -0.0000065 0.0001060 0.0001003 0.0001280 -0.0001132 0.0000026 0.0000909 0.0000871 -0.0000305 -0.0000049 0.0000070 0.0001324 -0.0003269 0.0000307 0.0000209 0.0000420 0.0000804 0.0000983 -0.0000011 0.0001444 -0.0000815 0.0001657 -0.0001709 0.0001860 -0.0003269 0.0000708 0.0000314 0.0001695 -0.0003847 0.0001692 -0.0001727 0.0002390 0.0006189 0.0001861 -0.0000851
0.0000560 0.0002536 0.0000809 0.0000843 -0.0000020 0.0000609 0.0000835 0.0001194 0.0001043 0.0000063 0.0001040 0.0001051 0.0001262 -0.0001114 0.0000001 0.0000982 0.0000825 -0.0000215 -0.0000077 0.0000137 0.0001308 -0.0003203 0.0000291 0.0000244 0.0000423 0.0000829 0.0000977 0.0000014 0.0001439 -0.0000810 0.0001644 -0.0001689 0.0001853 -0.0003232 0.0000696 0.0000378 0.0001690 -0.0003801 0.0001691 -0.0001709 0.0002346 0.0006283 0.0001852 -0.0000792
0.0000574 0.0002606 0.0000784 0.0000962 -0.0000033 0.0000690 0.0000967 0.0001089 0.0001047 0.0000189 0.0001059 0.0001075 0.0001209 -0.0001057 -0.0000031 0.0001086 0.0000829 -0.0000189 -0.0000089 0.0000210 0.0001283 -0.0003118 0.0000271 0.0000271 0.0000418 0.0000874 0.0000953 0.0000058 0.0001422 -0.0000754 0.0001635 -0.0001653 0.0001846 -0.0003173 0.0000688 0.0000442 0.0001678 -0.0003740 0.0001690 -0.0001677 0.0002299 0.0006386 0.0001847 -0.0000730
0.0000600 0.0002656 0.0000779 0.0001031 -0.0000040 0.0000755 0.0000754 0.0001332 0.0001041 0.0000331 0.0001026 0.0001110 0.0001136 -0.0000982 -0.0000049 0.0001176 0.0000823 -0.0000146 -0.0000096 0.0000252 0.0001258 -0.0003002 0.0000276 0.0000265 0.0000408 0.0000908 0.0000964 0.0000057 0.0001404 -0.0000666 0.0001623 -0.0001595 0.0001837 -0.0003072 0.0000684 0.0000512 0.0001662 -0.0003651 0.0001684 -0.0001607 0.0002198 0.0006553 0.0001842 -0.0000640
0.0000588 0.0002775 0.0000762 0.0001114 -0.0000050 0.0000809 0.0000760 0.0001357 0.0000993 0.0000543 0.0001053 0.0001124 0.0000997 -0.0000850 -0.0000049 0.0001202 0.0000805 -0.0000047 -0.0000172 0.0000343 0.0001210 -0.0002866 0.0000307 0.0000255 0.0000390 0.0000957 0.0000949 0.0000085 0.0001372 -0.0000561 0.0001602 -0.0001517 0.0001822 -0.0002970 0.0000670 0.0000598 0.0001642 -0.0003556 0.0001677 -0.0001537 0.0002107 0.0006720 0.0001839 -0.0000554
0.0000627 0.0002814 0.0000709 0.0001224 -0.0000036 0.0000827 0.0000944 0.0001378 0.0000920 0.0000730 0.0001023 0.0001175 0.0000900 -0.0000753 -0.0000032 0.0001230 0.0000770 0.0000042 -0.0000173 0.0000371 0.0001182 -0.0002747 0.0000301 0.0000244 0.0000401 0.0000988 0.0000940 0.0000113 0.0001368 -0.0000481 0.0001586 -0.0001449 0.0001808 -0.0002869 0.0000657 0.0000685 0.0001627 -0.0003473 0.0001670 -0.0001469 0.0002022 0.0006881 0.0001836 -0.0000458
0.0000594 0.0002876 0.0000664 0.0001338 -0.0000073 0.0000962 0.0001209 0.0001205 0.0000937 0.0000808 0.0000971 0.0001218 0.0000814 -0.0000672 -0.0000018 0.0001253 0.0000758 0.0000097 -0.0000122 0.0000352 0.0001172 -0.0002749 0.0000307 0.0000222 0.0000390 0.0001013 0.0000940 0.0000088 0.0001356 -0.0000470 0.0001587 -0.0001485 0.0001796 -0.0002974 0.0000651 0.0000703 0.0001616 -0.0003503 0.0001670 -0.0001538 0.0001991 0.0006919 0.0001845 -0.0000487
0.0000566 0.0002895 0.0000664 0.0001337 -0.0000043 0.0000972 0.0001470 0.0001059 0.0000942 0.0000857 0.0000937 0.0001200 0.0000670 -0.0000537 -0.0000036 0.0001301 0.0000738 0.0000164 -0.0000119 0.0000373 0.0001160 -0.0002725 0.0000292 0.0000203 0.0000377 0.0001006 0.0000970 0.0000019 0.0001360 -0.0000513 0.0001573 -0.0001496 0.0001792 -0.0003000 0.0000655 0.0000716 0.0001606 -0.0003481 0.0001673 -0.0001557 0.0001927 0.0006979 0.0001858 -0.0000460
0.0000608 0.0002856 0.0000641 0.0001365 -0.0000054 0.0001028 0.0001308 0.0001207 0.0000891 0.0000930 0.0000896 0.0001205 0.0000615 -0.0000488 -0.0000061 0.0001323 0.0000710 0.0000251 -0.0000067 0.0000364 0.0001156 -0.0002700 0.0000255 0.0000218 0.0000375 0.0000999 0.0000948 0.0000010 0.0001362 -0.0000501 0.0001582 -0.0001501 0.0001790 -0.0002973 0.0000651 0.0000760 0.0001598 -0.0003443 0.0001673 -0.0001538 0.0001869 0.0007056 0.0001863 -0.0000411
0.0000603 0.0002860 0.0000656 0.0001347 -0.0000058 0.0001048 0.0001680 0.0000981 0.0000857 0.0001054 0.0000905 0.0001198 0.0000581 -0.0000451 -0.0000090 0.0001342 0.0000735 0.0000243 -0.0000089 0.0000404 0.0001154 -0.0002635 0.0000257 0.0000190 0.0000362 0.0001009 0.0000956 -0.0000001 0.0001362 -0.0000475 0.0001584 -0.0001476 0.0001784 -0.0002908 0.0000644 0.0000806 0.0001582 -0.0003381 0.0001671 -0.0001490 0.0001776 0.0007166 0.0001864 -0.0000342
0.0000643 0.0002847 0.0000611 0.0001388 -0.0000069 0.0001065 0.0001494 0.0001128 0.0000809 0.0001199 0.0000906 0.0001187 0.0000555 -0.0000427 -0.0000069 0.0001341 0.0000707 0.0000277 -0.0000102 0.0000419 0.0001131 -0.0002527 0.0000285 0.0000161 0.0000350 0.0001028 0.0000956 -0.0000005 0.0001349 -0.0000423 0.0001589 -0.0001443 0.0001774 -0.0002840 0.0000644 0.0000849 0.0001565 -0.0003320 0.0001671 -0.0001439 0.0001707 0.0007281 0.0001863 -0.0000275
0.0000677 0.0002813 0.0000587 0.0001383 -0.0000083 0.0001084 0.0001720 0.0001006 0.0000800 0.0001254 0.0000904 0.0001164 0.0000567 -0.0000435 -0.0000091 0.0001377 0.0000667 0.0000346 -0.0000092 0.0000419 0.0001116 -0.0002482 0.0000278 0.0000147 0.0000346 0.0001041 0.0000971 -0.0000021 0.0001336 -0.0000371 0.0001586 -0.0001404 0.0001766 -0.0002776 0.0000640 0.0000903 0.0001546 -0.0003256 0.0001670 -0.0001387 0.0001618 0.0007404 0.0001864 -0.0000205
0.0000699 0.0002789 0.0000541 0.0001427 -0.0000093 0.0001108 0.0001896 0.0000866 0.0000819 0.0001292 0.0000857 0.0001277 0.0000535 -0.0000400 -0.0000110 0.0001406 0.0000695 0.0000346 -0.0000059 0.0000423 0.0001090 -0.0002440 0.0000277 0.0000121 0.0000346 0.0001043 0.0000991 -0.0000041 0.0001348 -0.0000385 0.0001590 -0.0001444 0.0001761 -0.0002871 0.0000638 0.0000920 0.0001534 -0.0003290 0.0001675 -0.0001447 0.0001541 0.0007442 0.0001874 -0.0000250
0.0000659 0.0002778 0.0000517 0.0001372 -0.0000110 0.0001113 0.0001827 0.0000756 0.0000809 0.0001265 0.0000873 0.0001206 0.0000550 -0.0000411 -0.0000117 0.0001404 0.0000700 0.0000336 -0.0000037 0.0000401 0.0001089 -0.0002487 0.0000308 0.0000073 0.0000353 0.0001012 0.0000982 -0.0000050 0.0001362 -0.0000471 0.0001607 -0.0001510 0.0001758 -0.0002947 0.0000645 0.0000911 0.0001523 -0.0003308 0.0001682 -0.0001496 0.0001492 0.0007432 0.0001875 -0.0000259
0.0000620 0.0002769 0.0000479 0.0001345 -0.0000104 0.0001109 0.0002107 0.0000532 0.0000791 0.0001311 0.0000870 0.0001163 0.0000492 -0.0000353 -0.0000136 0.0001421 0.0000698 0.0000344 -0.0000007 0.0000388 0.0001076 -0.0002440 0.0000313 0.0000041 0.0000351 0.0000991 0.0001020 -0.0000080 0.0001342 -0.0000451 0.0001607 -0.0001509 0.0001756 -0.0002926 0.0000642 0.0000930 0.0001507 -0.0003272 0.0001684 -0.0001475 0.0001422 0.0007481 0.0001880 -0.0000228
0.0000635 0.0002733 0.0000449 0.0001313 -0.0000105 0.0001129 0.0002049 0.0000628 0.0000779 0.0001350 0.0000867 0.0001179 0.0000544 -0.0000398 -0.0000144 0.0001423 0.0000627 0.0000416 0.0000067 0.0000355 0.0001082 -0.0002426 0.0000310 0.0000016 0.0000368 0.0000946 0.0001035 -0.0000084 0.0001351 -0.0000446 0.0001601 -0.0001476 0.0001750 -0.0002876 0.0000640 0.0000965 0.0001492 -0.0003224 0.0001683 -0.0001430 0.0001359 0.0007528 0.0001883 -0.0000179
0.0000652 0.0002708 0.0000437 0.0001297 -0.0000126 0.0001190 0.0001838 0.0000829 0.0000813 0.0001342 0.0000830 0.0001223 0.0000555 -0.0000404 -0.0000126 0.0001375 0.0000631 0.0000444 0.0000046 0.0000368 0.0001054 -0.0002345 0.0000280 0.0000034 0.0000372 0.0000924 0.0001047 -0.0000079 0.0001355 -0.0000420 0.0001600 -0.0001422 0.0001738 -0.0002803 0.0000626 0.0001018 0.0001477 -0.0003174 0.0001680 -0.0001367 0.0001320 0.0007573 0.0001876 -0.0000115
0.0000597 0.0002718 0.0000421 0.0001289 -0.0000134 0.0001184 0.0001880 0.0000765 0.0000848 0.0001319 0.0000730 0.0001352 0.0000566 -0.0000410 -0.0000123 0.0001365 0.0000613 0.0000466 0.0000065 0.0000340 0.0001000 -0.0002236 0.0000265 0.0000040 0.0000379 0.0000905 0.0001074 -0.0000094 0.0001377 -0.0000404 0.0001600 -0.0001380 0.0001728 -0.0002742 0.0000628 0.0001051 0.0001460 -0.0003119 0.0001675 -0.0001311 0.0001248 0.0007660 0.0001866 -0.0000046
0.0000583 0.0002692 0.0000375 0.0001308 -0.0000177 0.0001246 0.0001562 0.0001083 0.0000797 0.0001408 0.0000629 0.0001401 0.0000582 -0.0000419 -0.0000094 0.0001351 0.0000614 0.0000495 0.0000099 0.0000337 0.0001007 -0.0002212 0.0000238 0.0000045 0.0000389 0.0000884 0.0001067 -0.0000081 0.0001387 -0.0000390 0.0001604 -0.0001389 0.0001718 -0.0002773 0.0000625 0.0001070 0.0001441 -0.0003128 0.0001670 -0.0001320 0.0001237 0.0007648 0.0001864 -0.0000060
0.0000598 0.0002608 0.0000373 0.0001226 -0.0000165 0.0001227 0.0001533 0.0001042 0.0000756 0.0001434 0.0000633 0.0001338 0.0000591 -0.0000431 -0.0000091 0.0001314 0.0000606 0.0000426 0.0000086 0.0000329 0.0000995 -0.0002275 0.0000166 0.0000057 0.0000400 0.0000838 0.0001069 -0.0000100 0.0001386 -0.0000482 0.0001606 -0.0001467 0.0001709 -0.0002903 0.0000621 0.0001060 0.0001429 -0.0003171 0.0001669 -0.0001387 0.0001225 0.0007575 0.0001868 -0.0000104
0.0000569 0.0002566 0.0000410 0.0001102 -0.0000155 0.0001206 0.0001414 0.0001099 0.0000768 0.0001410 0.0000617 0.0001304 0.0000562 -0.0000405 -0.0000081 0.0001312 0.0000580 0.0000442 0.0000119 0.0000310 0.0000969 -0.0002225 0.0000190 0.0000007 0.0000417 0.0000797 0.0001068 -0.0000114 0.0001388 -0.0000487 0.0001613 -0.0001460 0.0001700 -0.0002872 0.0000608 0.0001089 0.0001410 -0.0003137 0.0001662 -0.0001350 0.0001180 0.0007570 0.0001866 -0.0000068
0.0000605 0.0002504 0.0000403 0.0001054 -0.0000139 0.0001189 0.0001269 0.0001175 0.0000776 0.0001440 0.0000688 0.0001226 0.0000512 -0.0000356 -0.0000061 0.0001284 0.0000600 0.0000421 0.0000177 0.0000278 0.0000972 -0.0002200 0.0000230 -0.0000045 0.0000404 0.0000791 0.0001078 -0.0000124 0.0001377 -0.0000453 0.0001614 -0.0001429 0.0001688 -0.0002814 0.0000598 0.0001122 0.0001386 -0.0003085 0.0001651 -0.0001289 0.0001122 0.0007609 0.0001858 -0.0000012
0.0000556 0.0002502 0.0000410 0.0000995 -0.0000146 0.0001164 0.0001080 0.0001479 0.0000755 0.0001463 0.0000637 0.0001263 0.0000442 -0.0000295 -0.0000047 0.0001273 0.0000577 0.0000486 0.0000182 0.0000279 0.0000944 -0.0002104 0.0000221 -0.0000043 0.0000390 0.0000797 0.0001083 -0.0000121 0.0001366 -0.0000398 0.0001610 -0.0001375 0.0001673 -0.0002722 0.0000599 0.0001158 0.0001362 -0.0003019 0.0001631 -0.0001196 0.0001052 0.0007645 0.0001844 0.0000065
0.0000508 0.0002506 0.0000404 0.0000978 -0.0000144 0.0001138 0.0001212 0.0001397 0.0000765 0.0001489 0.0000612 0.0001317 0.0000402 -0.0000256 -0.0000043 0.0001262 0.0000578 0.0000498 0.0000172 0.0000295 0.0000942 -0.0002071 0.0000206 -0.0000039 0.0000399 0.0000791 0.0001076 -0.0000109 0.0001352 -0.0000354 0.0001601 -0.0001309 0.0001652 -0.0002637 0.0000583 0.0001212 0.0001337 -0.0002960 0.0001606 -0.0001108 0.0001069 0.0007625 0.0001835 0.0000131
0.0000518 0.0002440 0.0000418 0.0000952 -0.0000135 0.0001130 0.0001068 0.0001505 0.0000794 0.0001429 0.0000597 0.0001312 0.0000377 -0.0000232 -0.0000040 0.0001256 0.0000544 0.0000517 0.0000188 0.0000272 0.0000956 -0.0002050 0.0000226 -0.0000075 0.0000398 0.0000782 0.0001057 -0.0000093 0.0001372 -0.0000333 0.0001603 -0.0001289 0.0001636 -0.0002642 0.0000574 0.0001233 0.0001318 -0.0002964 0.0001589 -0.0001082 0.0001052 0.0007598 0.0001822 0.0000139
0.0000455 0.0002429 0.0000455 0.0000847 -0.0000154 0.0001135 0.0000628 0.0001846 0.0000774 0.0001472 0.0000588 0.0001302 0.0000453 -0.0000304 -0.0000051 0.0001247 0.0000556 0.0000470 0.0000197 0.0000259 0.0000953 -0.0002127 0.0000230 -0.0000086 0.0000390 0.0000734 0.0001078 -0.0000124 0.0001389 -0.0000403 0.0001606 -0.0001342 0.0001621 -0.0002782 0.0000562 0.0001212 0.0001301 -0.0003031 0.0001573 -0.0001141 0.0001026 0.0007505 0.0001814 0.0000084
0.0000469 0.0002372 0.0000478 0.0000731 -0.0000126 0.0001042 0.0000332 0.0002048 0.0000727 0.0001430 0.0000569 0.0001318 0.0000420 -0.0000274 -0.0000071 0.0001251 0.0000537 0.0000492 0.0000177 0.0000262 0.0000941 -0.0002101 0.0000222 -0.0000084 0.0000393 0.0000715 0.0001057 -0.0000123 0.0001411 -0.0000439 0.0001600 -0.0001318 0.0001602 -0.0002740 0.0000549 0.0001239 0.0001273 -0.0002992 0.0001547 -0.0001077 0.0000969 0.0007504 0.0001806 0.0000121
0.0000492 0.0002306 0.0000460 0.0000692 -0.0000142 0.0001055 0.0000033 0.0002247 0.0000736 0.0001379 0.0000556 0.0001331 0.0000546 -0.0000392 -0.0000077 0.0001253 0.0000511 0.0000494 0.0000156 0.0000292 0.0000932 -0.0002048 0.0000249 -0.0000099 0.0000410 0.0000685 0.0001024 -0.0000089 0.0001416 -0.0000390 0.0001596 -0.0001250 0.0001579 -0.0002634 0.0000529 0.0001293 0.0001239 -0.0002919 0.0001515 -0.0000969 0.0000951 0.0007485 0.0001783 0.0000195
0.0000446 0.0002324 0.0000463 0.0000652 -0.0000167 0.0001061 0.0000332 0.0002016 0.0000762 0.0001389 0.0000568 0.0001306 0.0000524 -0.0000366 -0.0000050 0.0001229 0.0000522 0.0000501 0.0000119 0.0000321 0.0000908 -0.0001933 0.0000282 -0.0000121 0.0000411 0.0000692 0.0001050 -0.0000098 0.0001395 -0.0000295 0.0001570 -0.0001129 0.0001550 -0.0002501 0.0000516 0.0001353 0.0001205 -0.0002832 0.0001474 -0.0000830 0.0000925 0.0007495 0.0001758 0.0000295
0.0000443 0.0002307 0.0000470 0.0000644 -0.0000186 0.0001078 0.0000311 0.0002081 0.0000731 0.0001427 0.0000559 0.0001336 0.0000502 -0.0000344 -0.0000023 0.0001215 0.0000456 0.0000606 0.0000112 0.0000355 0.0000880 -0.0001842 0.0000299 -0.0000114 0.0000418 0.0000717 0.0001024 -0.0000064 0.0001374 -0.0000190 0.0001550 -0.0001020 0.0001516 -0.0002371 0.0000496 0.0001426 0.0001172 -0.0002743 0.0001437 -0.0000700 0.0000953 0.0007469 0.0001731 0.0000399
0.0000399 0.0002326 0.0000438 0.0000690 -0.0000198 0.0001097 0.0000432 0.0001928 0.0000763 0.0001399 0.0000561 0.0001345 0.0000493 -0.0000332 -0.0000024 0.0001232 0.0000474 0.0000621 0.0000171 0.0000315 0.0000863 -0.0001828 0.0000260 -0.0000098 0.0000424 0.0000720 0.0001056 -0.0000085 0.0001366 -0.0000146 0.0001529 -0.0000974 0.0001486 -0.0002381 0.0000469 0.0001466 0.0001146 -0.0002743 0.0001397 -0.0000660 0.0000924 0.0007460 0.0001706 0.0000418
0.0000392 0.0002289 0.0000456 0.0000687 -0.0000200 0.0001098 0.0000356 0.0001918 0.0000815 0.0001273 0.0000534 0.0001354 0.0000465 -0.0000305 -0.0000012 0.0001193 0.0000469 0.0000635 0.0000145 0.0000340 0.0000841 -0.0001851 0.0000283 -0.0000114 0.0000425 0.0000699 0.0001049 -0.0000092 0.0001375 -0.0000210 0.0001519 -0.0001011 0.0001459 -0.0002499 0.0000448 0.0001455 0.0001122 -0.0002802 0.0001361 -0.0000694 0.0000925 0.0007352 0.0001689 0.0000366
0.0000355 0.0002264 0.0000447 0.0000595 -0.0000198 0.0001081 0.0000001 0.0002011 0.0000763 0.0001233 0.0000568 0.0001253 0.0000464 -0.0000307 0.0000011 0.0001124 0.0000447 0.0000657 0.0000144 0.0000325 0.0000818 -0.0001884 0.0000315 -0.0000146 0.0000418 0.0000680 0.0001056 -0.0000117 0.0001363 -0.0000236 0.0001503 -0.0000998 0.0001430 -0.0002494 0.0000430 0.0001462 0.0001093 -0.0002791 0.0001324 -0.0000652 0.0000930 0.0007290 0.0001666 0.0000391
0.0000360 0.0002217 0.0000477 0.0000533 -0.0000197 0.0001059 0.0000035 0.0001936 0.0000755 0.0001208 0.0000568 0.0001255 0.0000507 -0.0000348 0.0000024 0.0001076 0.0000409 0.0000717 0.0000133 0.0000325 0.0000797 -0.0001840 0.0000315 -0.0000145 0.0000410 0.0000684 0.0001079 -0.0000136 0.0001342 -0.0000175 0.0001490 -0.0000924 0.0001398 -0.0002383 0.0000403 0.0001509 0.0001058 -0.0002715 0.0001280 -0.0000536 0.0000896 0.0007297 0.0001643 0.0000471
0.0000317 0.0002237 0.0000491 0.0000504 -0.0000219 0.0001091 0.0000116 0.0001858 0.0000784 0.0001152 0.0000542 0.0001284 0.0000501 -0.0000342 0.0000039 0.0001049 0.0000420 0.0000759 0.0000124 0.0000321 0.0000773 -0.0001766 0.0000309 -0.0000120 0.0000412 0.0000711 0.0001047 -0.0000101 0.0001329 -0.0000092 0.0001470 -0.0000812 0.0001365 -0.0002243 0.0000378 0.0001576 0.0001023 -0.0002624 0.0001228 -0.0000392 0.0000871 0.0007325 0.0001608 0.0000580
0.0000292 0.0002245 0.0000499 0.0000537 -0.0000220 0.0001051 0.0000056 0.0001881 0.0000746 0.0001200 0.0000560 0.0001269 0.0000477 -0.0000320 0.0000050 0.0001037 0.0000421 0.0000813 0.0000060 0.0000385 0.0000728 -0.0001648 0.0000288 -0.0000102 0.0000423 0.0000732 0.0001026 -0.0000070 0.0001308 0.0000017 0.0001460 -0.0000709 0.0001329 -0.0002091 0.0000344 0.0001660 0.0000986 -0.0002530 0.0001172 -0.0000243 0.0000845 0.0007376 0.0001575 0.0000691
0.0000315 0.0002218 0.0000487 0.0000585 -0.0000222 0.0001013 0.0000126 0.0001888 0.0000725 0.0001205 0.0000618 0.0001230 0.0000427 -0.0000272 0.0000018 0.0001062 0.0000398 0.0000841 0.0000086 0.0000370 0.0000718 -0.0001650 0.0000263 -0.0000083 0.0000418 0.0000752 0.0001018 -0.0000056 0.0001280 0.0000081 0.0001440 -0.0000671 0.0001296 -0.0002107 0.0000329 0.0001677 0.0000956 -0.0002530 0.0001124 -0.0000214 0.0000833 0.0007368 0.0001552 0.0000690
0.0000294 0.0002202 0.0000460 0.0000584 -0.0000244 0.0001008 0.0000173 0.0001803 0.0000745 0.0001113 0.0000561 0.0001229 0.0000404 -0.0000250 0.0000017 0.0001060 0.0000387 0.0000855 0.0000088 0.0000381 0.0000756 -0.0001780 0.0000237 -0.0000064 0.0000416 0.0000754 0.0001018 -0.0000057 0.0001246 0.0000045 0.0001431 -0.0000721 0.0001263 -0.0002225 0.0000307 0.0001667 0.0000934 -0.0002597 0.0001081 -0.0000258 0.0000827 0.0007250 0.0001536 0.0000623
0.0000233 0.0002209 0.0000471 0.0000498 -0.0000225 0.0000941 0.0000146 0.0001641 0.0000762 0.0001000 0.0000625 0.0001143 0.0000444 -0.0000292 0.0000006 0.0001002 0.0000355 0.0000838 0.0000075 0.0000352 0.0000741 -0.0001876 0.0000245 -0.0000076 0.0000407 0.0000717 0.0001038 -0.0000089 0.0001231 -0.0000023 0.0001410 -0.0000748 0.0001235 -0.0002294 0.0000284 0.0001658 0.0000908 -0.0002620 0.0001045 -0.0000277 0.0000789 0.0007195 0.0001524 0.0000598
0.0000218 0.0002172 0.0000468 0.0000467 -0.0000218 0.0000929 -0.0000066 0.0001735 0.0000793 0.0000874 0.0000610 0.0001115 0.0000500 -0.0000348 0.0000014 0.0000973 0.0000366 0.0000821 0.0000131 0.0000316 0.0000744 -0.0001886 0.0000301 -0.0000109 0.0000390 0.0000721 0.0001046 -0.0000099 0.0001225 -0.0000000 0.0001387 -0.0000700 0.0001209 -0.0002226 0.0000257 0.0001690 0.0000880 -0.0002578 0.0000995 -0.0000200 0.0000754 0.0007199 0.0001496 0.0000661
0.0000245 0.0002125 0.0000447 0.0000479 -0.0000246 0.0000913 0.0000128 0.0001524 0.0000749 0.0000869 0.0000621 0.0001147 0.0000547 -0.0000392 -0.0000010 0.0000973 0.0000338 0.0000846 0.0000114 0.0000314 0.0000725 -0.0001836 0.0000325 -0.0000112 0.0000386 0.0000729 0.0001044 -0.0000094 0.0001191 0.0000078 0.0001361 -0.0000633 0.0001183 -0.0002123 0.0000239 0.0001728 0.0000846 -0.0002507 0.0000947 -0.0000097 0.0000743 0.0007211 0.0001467 0.0000740
0.0000201 0.0002144 0.0000439 0.0000512 -0.0000243 0.0000857 0.0000453 0.0001175 0.0000738 0.0000859 0.0000556 0.0001253 0.0000522 -0.0000368 -0.0000016 0.0000963 0.0000337 0.0000853 0.0000076 0.0000314 0.0000684 -0.0001726 0.0000319 -0.0000083 0.0000396 0.0000742 0.0001048 -0.0000077 0.0001173 0.0000158 0.0001339 -0.0000537 0.0001155 -0.0001993 0.0000224 0.0001780 0.0000817 -0.0002427 0.0000899 0.0000020 0.0000731 0.0007224 0.0001442 0.0000832
0.0000151 0.0002187 0.0000421 0.0000556 -0.0000235 0.0000845 0.0000472 0.0001026 0.0000742 0.0000863 0.0000601 0.0001211 0.0000634 -0.0000469 -0.0000022 0.0000935 0.0000352 0.0000813 0.0000109 0.0000286 0.0000684 -0.0001735 0.0000331 -0.0000078 0.0000402 0.0000744 0.0001070 -0.0000096 0.0001156 0.0000180 0.0001323 -0.0000525 0.0001127 -0.0002025 0.0000196 0.0001800 0.0000796 -0.0002447 0.0000859 0.0000016 0.0000765 0.0007167 0.0001424 0.0000821
0.0000168 0.0002128 0.0000411 0.0000555 -0.0000252 0.0000856 0.0000559 0.0000836 0.0000691 0.0000829 0.0000649 0.0001114 0.0000694 -0.0000527 -0.0000022 0.0000879 0.0000296 0.0000821 0.0000122 0.0000277 0.0000660 -0.0001801 0.0000315 -0.0000079 0.0000395 0.0000727 0.0001060 -0.0000100 0.0001160 0.0000104 0.0001304 -0.0000580 0.0001108 -0.0002161 0.0000180 0.0001763 0.0000781 -0.0002525 0.0000830 -0.0000071 0.0000773 0.0007067 0.0001410 0.0000747
0.0000179 0.0002071 0.0000423 0.0000496 -0.0000237 0.0000802 0.0000677 0.0000745 0.0000669 0.0000801 0.0000619 0.0001135 0.0000721 -0.0000555 -0.0000029 0.0000854 0.0000287 0.0000734 0.0000113 0.0000241 0.0000657 -0.0001930 0.0000268 -0.0000055 0.0000398 0.0000696 0.0001080 -0.0000145 0.0001143 0.0000009 0.0001296 -0.0000641 0.0001088 -0.0002249 0.0000167 0.0001731 0.0000767 -0.0002571 0.0000806 -0.0000142 0.0000764 0.0006992 0.0001401 0.0000703
0.0000209 0.0001997 0.0000400 0.0000484 -0.0000235 0.0000791 0.0000854 0.0000537 0.0000708 0.0000650 0.0000624 0.0001120 0.0000672 -0.0000511 -0.0000044 0.0000834 0.0000238 0.0000743 0.0000108 0.0000230 0.0000657 -0.0001970 0.0000224 -0.0000020 0.0000404 0.0000687 0.0001095 -0.0000172 0.0001121 0.0000004 0.0001275 -0.0000641 0.0001076 -0.0002234 0.0000162 0.0001730 0.0000750 -0.0002558 0.0000782 -0.0000136 0.0000777 0.0006923 0.0001392 0.0000720
0.0000182 0.0001983 0.0000426 0.0000439 -0.0000230 0.0000754 0.0001123 0.0000288 0.0000721 0.0000578 0.0000692 0.0001041 0.0000710 -0.0000550 -0.0000034 0.0000800 0.0000227 0.0000721 0.0000164 0.0000199 0.0000614 -0.0001952 0.0000238 -0.0000038 0.0000394 0.0000678 0.0001093 -0.0000178 0.0001094 0.0000034 0.0001265 -0.0000625 0.0001067 -0.0002190 0.0000150 0.0001737 0.0000740 -0.0002539 0.0000755 -0.0000108 0.0000770 0.0006897 0.0001377 0.0000763
0.0000143 0.0002019 0.0000419 0.0000464 -0.0000231 0.0000697 0.0001221 0.0000169 0.0000676 0.0000606 0.0000732 0.0000978 0.0000684 -0.0000523 -0.0000044 0.0000797 0.0000269 0.0000667 0.0000143 0.0000216 0.0000614 -0.0001934 0.0000192 0.0000019 0.0000380 0.0000713 0.0001090 -0.0000173 0.0001060 0.0000083 0.0001249 -0.0000584 0.0001054 -0.0002125 0.0000139 0.0001761 0.0000733 -0.0002513 0.0000724 -0.0000064 0.0000758 0.0006911 0.0001361 0.0000819
0.0000173 0.0002018 0.0000410 0.0000503 -0.0000218 0.0000678 0.0001115 0.0000112 0.0000723 0.0000578 0.0000770 0.0000974 0.0000695 -0.0000535 -0.0000056 0.0000816 0.0000275 0.0000623 0.0000173 0.0000195 0.0000584 -0.0001966 0.0000164 0.0000050 0.0000385 0.0000714 0.0001070 -0.0000159 0.0001049 0.0000075 0.0001242 -0.0000615 0.0001039 -0.0002191 0.0000133 0.0001742 0.0000728 -0.0002561 0.0000704 -0.0000127 0.0000764 0.0006856 0.0001358 0.0000771
0.0000122 0.0002023 0.0000414 0.0000517 -0.0000227 0.0000670 0.0000827 0.0000167 0.0000753 0.0000499 0.0000769 0.0000917 0.0000700 -0.0000540 -0.0000083 0.0000820 0.0000288 0.0000552 0.0000132 0.0000205 0.0000587 -0.0002107 0.0000145 0.0000045 0.0000380 0.0000668 0.0001080 -0.0000196 0.0001033 -0.0000029 0.0001235 -0.0000721 0.0001037 -0.0002385 0.0000138 0.0001666 0.0000731 -0.0002683 0.0000696 -0.0000287 0.0000736 0.0006775 0.0001359 0.0000660
0.0000065 0.0001998 0.0000456 0.0000410 -0.0000220 0.0000621 0.0000540 0.0000301 0.0000715 0.0000378 0.0000711 0.0000909 0.0000694 -0.0000538 -0.0000078 0.0000745 0.0000254 0.0000505 0.0000118 0.0000189 0.0000609 -0.0002231 0.0000168 0.0000012 0.0000382 0.0000608 0.0001056 -0.0000220 0.0001023 -0.0000130 0.0001234 -0.0000797 0.0001042 -0.0002474 0.0000142 0.0001603 0.0000733 -0.0002738 0.0000693 -0.0000381 0.0000720 0.0006692 0.0001365 0.0000608
0.0000058 0.0001912 0.0000494 0.0000324 -0.0000229 0.0000528 0.0000491 0.0000144 0.0000690 0.0000334 0.0000778 0.0000776 0.0000744 -0.0000585 -0.0000095 0.0000675 0.0000256 0.0000434 0.0000101 0.0000137 0.0000613 -0.0002272 0.0000166 -0.0000023 0.0000370 0.0000589 0.0001062 -0.0000267 0.0001013 -0.0000137 0.0001231 -0.0000818 0.0001044 -0.0002470 0.0000142 0.0001585 0.0000736 -0.0002755 0.0000694 -0.0000420 0.0000724 0.0006664 0.0001365 0.0000606
0.0000058 0.0001801 0.0000507 0.0000310 -0.0000244 0.0000381 0.0000431 0.0000076 0.0000726 0.0000219 0.0000801 0.0000705 0.0000784 -0.0000621 -0.0000156 0.0000648 0.0000246 0.0000371 0.0000026 0.0000087 0.0000621 -0.0002272 0.0000151 -0.0000001 0.0000357 0.0000579 0.0001042 -0.0000264 0.0001003 -0.0000122 0.0001231 -0.0000803 0.0001047 -0.0002417 0.0000144 0.0001571 0.0000744 -0.0002745 0.0000697 -0.0000437 0.0000713 0.0006624 0.0001374 0.0000636
0.0000088 0.0001574 0.0000524 0.0000290 -0.0000213 0.0000173 0.0000338 -0.0000021 0.0000674 0.0000154 0.0000791 0.0000644 0.0000714 -0.0000552 -0.0000214 0.0000569 0.0000227 0.0000309 -0.0000032 0.0000018 0.0000627 -0.0002273 0.0000157 0.0000032 0.0000346 0.0000563 0.0001063 -0.0000254 0.0001017 -0.0000117 0.0001224 -0.0000760 0.0001050 -0.0002332 0.0000168 0.0001601 0.0000755 -0.0002725 0.0000697 -0.0000468 0.0000753 0.0006595 0.0001392 0.0000685
0.0000123 0.0001321 0.0000533 0.0000342 -0.0000152 -0.0000084 0.0000264 -0.0000238 0.0000609 0.0000148 0.0000757 0.0000583 0.0000563 -0.0000407 -0.0000301 0.0000481 0.0000162 0.0000286 -0.0000016 -0.0000128 0.0000639 -0.0002283 0.0000192 0.0000045 0.0000330 0.0000532 0.0001074 -0.0000229 0.0001032 -0.0000111 0.0001233 -0.0000742 0.0001052 -0.0002329 0.0000190 0.0001610 0.0000776 -0.0002774 0.0000697 -0.0000570 0.0000768 0.0006546 0.0001425 0.0000665
0.0000163 0.0000885 0.0000540 0.0000355 -0.0000008 -0.0000494 0.0000313 -0.0000752 0.0000584 -0.0000049 0.0000612 0.0000561 0.0000541 -0.0000382 -0.0000413 0.0000318 0.0000120 0.0000175 0.0000019 -0.0000427 0.0000640 -0.0002371 0.0000203 0.0000018 0.0000292 0.0000483 0.0001104 -0.0000240 0.0001057 -0.0000215 0.0001232 -0.0000772 0.0001063 -0.0002430 0.0000232 0.0001607 0.0000808 -0.0002883 0.0000708 -0.0000792 0.0000780 0.0006444 0.0001475 0.0000564
0.0000196 0.0000450 0.0000557 0.0000296 0.0000168 -0.0000958 0.0000410 -0.0001279 0.0000508 -0.0000192 0.0000472 0.0000464 0.0000520 -0.0000361 -0.0000470 0.0000133 0.0000049 0.0000062 0.0000028 -0.0000653 0.0000626 -0.0002374 0.0000237 0.0000026 0.0000263 0.0000458 0.0001127 -0.0000224 0.0001098 -0.0000332 0.0001252 -0.0000768 0.0001078 -0.0002391 0.0000284 0.0001664 0.0000845 -0.0002930 0.0000712 -0.0000953 0.0000804 0.0006362 0.0001522 0.0000539
0.0000236 0.0000062 0.0000610 0.0000281 0.0000323 -0.0001385 0.0000427 -0.0001638 0.0000416 -0.0000241 0.0000509 0.0000217 0.0000515 -0.0000350 -0.0000552 -0.0000002 -0.0000002 -0.0000032 0.0000049 -0.0000872 0.0000585 -0.0002301 0.0000252 0.0000023 0.0000242 0.0000433 0.0001140 -0.0000206 0.0001141 -0.0000378 0.0001263 -0.0000695 0.0001101 -0.0002284 0.0000335 0.0001749 0.0000878 -0.0002943 0.0000715 -0.0001075 0.0000810 0.0006354 0.0001566 0.0000544
0.0000372 -0.0000384 0.0000645 0.0000327 0.0000414 -0.0001731 0.0000713 -0.0002153 0.0000372 -0.0000283 0.0000438 0.0000095 0.0000401 -0.0000237 -0.0000665 -0.0000075 -0.0000021 -0.0000110 0.0000091 -0.0001072 0.0000581 -0.0002220 0.0000213 0.0000070 0.0000239 0.0000431 0.0001149 -0.0000153 0.0001181 -0.0000385 0.0001278 -0.0000597 0.0001121 -0.0002137 0.0000388 0.0001834 0.0000914 -0.0002933 0.0000714 -0.0001163 0.0000837 0.0006337 0.0001600 0.0000573
0.0000409 -0.0000730 0.0000647 0.0000387 0.0000518 -0.0002106 0.0000604 -0.0002469 0.0000259 -0.0000234 0.0000358 0.0000048 0.0000312 -0.0000141 -0.0000755 -0.0000221 -0.0000100 -0.0000103 0.0000108 -0.0001299 0.0000576 -0.0002134 0.0000200 0.0000103 0.0000221 0.0000434 0.0001169 -0.0000107 0.0001213 -0.0000384 0.0001284 -0.0000457 0.0001139 -0.0001949 0.0000445 0.0001932 0.0000953 -0.0002910 0.0000717 -0.0001253 0.0000833 0.0006338 0.0001648 0.0000612
0.0000438 -0.0001127 0.0000656 0.0000483 0.0000629 -0.0002438 0.0000379 -0.0002586 0.0000248 -0.0000273 0.0000242 -0.0000050 0.0000179 -0.0000002 -0.0000855 -0.0000349 -0.0000149 -0.0000127 0.0000135 -0.0001506 0.0000582 -0.0002061 0.0000212 0.0000159 0.0000195 0.0000440 0.0001192 -0.0000040 0.0001250 -0.0000405 0.0001299 -0.0000341 0.0001160 -0.0001844 0.0000503 0.0002027 0.0000997 -0.0002952 0.0000717 -0.0001415 0.0000840 0.0006338 0.0001705 0.0000586
0.0000512 -0.0001555 0.0000649 0.0000556 0.0000724 -0.0002730 0.0000242 -0.0002770 0.0000259 -0.0000309 0.0000166 -0.0000199 0.0000020 0.0000158 -0.0000981 -0.0000439 -0.0000206 -0.0000201 0.0000167 -0.0001720 0.0000575 -0.0002094 0.0000232 0.0000235 0.0000171 0.0000419 0.0001188 0.0000064 0.0001302 -0.0000530 0.0001317 -0.0000312 0.0001185 -0.0001866 0.0000556 0.0002083 0.0001044 -0.0003061 0.0000723 -0.0001676 0.0000847 0.0006287 0.0001774 0.0000493
0.0000637 -0.0002069 0.0000660 0.0000579 0.0000848 -0.0003082 0.0000122 -0.0003051 0.0000219 -0.0000369 0.0000103 -0.0000322 -0.0000203 0.0000375 -0.0001113 -0.0000564 -0.0000276 -0.0000236 0.0000179 -0.0001966 0.0000580 -0.0002092 0.0000251 0.0000286 0.0000155 0.0000376 0.0001206 0.0000148 0.0001345 -0.0000608 0.0001338 -0.0000206 0.0001209 -0.0001727 0.0000601 0.0002151 0.0001087 -0.0003081 0.0000728 -0.0001837 0.0000821 0.0006275 0.0001826 0.0000492
0.0000720 -0.0002490 0.0000683 0.0000652 0.0000982 -0.0003469 0.0000015 -0.0003185 0.0000217 -0.0000435 0.0000023 -0.0000404 -0.0000421 0.0000592 -0.0001242 -0.0000650 -0.0000275 -0.0000315 0.0000190 -0.0002228 0.0000574 -0.0001983 0.0000291 0.0000343 0.0000142 0.0000362 0.0001214 0.0000241 0.0001386 -0.0000627 0.0001356 -0.0000037 0.0001231 -0.0001494 0.0000652 0.0002248 0.0001124 -0.0003044 0.0000728 -0.0001932 0.0000819 0.0006293 0.0001871 0.0000558
0.0000816 -0.0002917 0.0000689 0.0000758 0.0001122 -0.0003792 -0.0000008 -0.0003535 0.0000150 -0.0000516 -0.0000016 -0.0000563 -0.0000489 0.0000668 -0.0001387 -0.0000748 -0.0000337 -0.0000327 0.0000254 -0.0002508 0.0000549 -0.0001841 0.0000321 0.0000371 0.0000124 0.0000328 0.0001250 0.0000302 0.0001418 -0.0000613 0.0001373 0.0000156 0.0001257 -0.0001229 0.0000694 0.0002338 0.0001159 -0.0002976 0.0000722 -0.0001996 0.0000818 0.0006328 0.0001911 0.0000651
0.0000925 -0.0003338 0.0000686 0.0000934 0.0001354 -0.0004246 -0.0000128 -0.0003853 -0.0000004 -0.0000420 -0.0000131 -0.0000652 -0.0000547 0.0000734 -0.0001515 -0.0000838 -0.0000374 -0.0000347 0.0000290 -0.0002765 0.0000553 -0.0001713 0.0000324 0.0000396 0.0000092 0.0000317 0.0001230 0.0000402 0.0001448 -0.0000569 0.0001394 0.0000382 0.0001269 -0.0000932 0.0000728 0.0002431 0.0001195 -0.0002893 0.0000712 -0.0002035 0.0000795 0.0006396 0.0001944 0.0000746
0.0001024 -0.0003763 0.0000645 0.0001144 0.0001596 -0.0004671 -0.0000403 -0.0003984 -0.0000090 -0.0000426 -0.0000310 -0.0000708 -0.0000680 0.0000869 -0.0001623 -0.0000931 -0.0000390 -0.0000412 0.0000257 -0.0003007 0.0000563 -0.0001597 0.0000318 0.0000405 0.0000057 0.0000311 0.0001269 0.0000446 0.0001470 -0.0000548 0.0001418 0.0000552 0.0001277 -0.0000777 0.0000760 0.0002491 0.0001232 -0.0002881 0.0000713 -0.0002165 0.0000778 0.0006410 0.0001980 0.0000754
0.0001112 -0.0004216 0.0000673 0.0001227 0.0001877 -0.0005110 -0.0000563 -0.0004262 -0.0000171 -0.0000587 -0.0000414 -0.0000866 -0.0000910 0.0001087 -0.0001701 -0.0001117 -0.0000433 -0.0000463 0.0000342 -0.0003361 0.0000562 -0.0001564 0.0000362 0.0000326 0.0000024 0.0000262 0.0001329 0.0000457 0.0001509 -0.0000629 0.0001446 0.0000664 0.0001289 -0.0000690 0.0000795 0.0002512 0.0001269 -0.0002894 0.0000725 -0.0002342 0.0000779 0.0006372 0.0002018 0.0000724
0.0001181 -0.0004677 0.0000691 0.0001305 0.0002180 -0.0005659 -0.0000542 -0.0004647 -0.0000315 -0.0000742 -0.0000552 -0.0000988 -0.0000903 0.0001088 -0.0001812 -0.0001314 -0.0000528 -0.0000439 0.0000390 -0.0003711 0.0000589 -0.0001506 0.0000360 0.0000323 -0.0000039 0.0000244 0.0001366 0.0000529 0.0001546 -0.0000674 0.0001471 0.0000840 0.0001305 -0.0000474 0.0000820 0.0002585 0.0001307 -0.0002831 0.0000729 -0.0002438 0.0000754 0.0006364 0.0002055 0.0000777
0.0001338 -0.0005223 0.0000674 0.0001431 0.0002481 -0.0006178 -0.0000654 -0.0004995 -0.0000461 -0.0000797 -0.0000610 -0.0001111 -0.0001035 0.0001214 -0.0001960 -0.0001441 -0.0000570 -0.0000481 0.0000398 -0.0004035 0.0000597 -0.0001341 0.0000357 0.0000337 -0.0000091 0.0000250 0.0001380 0.0000611 0.0001592 -0.0000624 0.0001488 0.0001096 0.0001315 -0.0000114 0.0000846 0.0002714 0.0001338 -0.0002690 0.0000730 -0.0002444 0.0000736 0.0006434 0.0002095 0.0000885
0.0001537 -0.0005765 0.0000680 0.0001614 0.0002735 -0.0006666 -0.0000697 -0.0005330 -0.0000570 -0.0000733 -0.0000633 -0.0001223 -0.0001218 0.0001394 -0.0002118 -0.0001501 -0.0000619 -0.0000511 0.0000383 -0.0004300 0.0000588 -0.0001105 0.0000398 0.0000357 -0.0000132 0.0000268 0.0001402 0.0000700 0.0001630 -0.0000530 0.0001499 0.0001396 0.0001320 0.0000311 0.0000881 0.0002868 0.0001366 -0.0002523 0.0000722 -0.0002419 0.0000704 0.0006567 0.0002132 0.0001029
0.0001695 -0.0006256 0.0000614 0.0001878 0.0002954 -0.0007027 -0.0000738 -0.0005453 -0.0000700 -0.0000632 -0.0000745 -0.0001244 -0.0001341 0.0001520 -0.0002272 -0.0001522 -0.0000667 -0.0000499 0.0000438 -0.0004587 0.0000592 -0.0000860 0.0000394 0.0000427 -0.0000167 0.0000306 0.0001412 0.0000826 0.0001664 -0.0000427 0.0001511 0.0001724 0.0001324 0.0000757 0.0000910 0.0003039 0.0001393 -0.0002336 0.0000701 -0.0002384 0.0000689 0.0006675 0.0002166 0.0001179
0.0001896 -0.0006728 0.0000602 0.0002139 0.0003204 -0.0007326 -0.0000557 -0.0005766 -0.0000810 -0.0000532 -0.0000828 -0.0001314 -0.0001577 0.0001748 -0.0002379 -0.0001546 -0.0000744 -0.0000467 0.0000560 -0.0004877 0.0000595 -0.0000723 0.0000380 0.0000443 -0.0000199 0.0000304 0.0001424 0.0000899 0.0001681 -0.0000428 0.0001521 0.0001953 0.0001332 0.0000977 0.0000929 0.0003149 0.0001416 -0.0002267 0.0000684 -0.0002483 0.0000649 0.0006741 0.0002193 0.0001201
0.0002034 -0.0007046 0.0000589 0.0002362 0.0003488 -0.0007637 -0.0000658 -0.0005904 -0.0000911 -0.0000492 -0.0000897 -0.0001410 -0.0001625 0.0001795 -0.0002519 -0.0001517 -0.0000739 -0.0000522 0.0000588 -0.0005116 0.0000579 -0.0000619 0.0000373 0.0000364 -0.0000243 0.0000274 0.0001414 0.0000912 0.0001710 -0.0000479 0.0001534 0.0002117 0.0001340 0.0001121 0.0000922 0.0003180 0.0001435 -0.0002225 0.0000676 -0.0002588 0.0000577 0.0006774 0.0002206 0.0001167
0.0002223 -0.0007401 0.0000572 0.0002522 0.0003707 -0.0007874 -0.0000886 -0.0005936 -0.0000980 -0.0000561 -0.0000980 -0.0001504 -0.0001589 0.0001761 -0.0002614 -0.0001501 -0.0000779 -0.0000535 0.0000585 -0.0005302 0.0000572 -0.0000512 0.0000358 0.0000288 -0.0000289 0.0000256 0.0001456 0.0000880 0.0001715 -0.0000533 0.0001538 0.0002269 0.0001352 0.0001328 0.0000926 0.0003200 0.0001451 -0.0002125 0.0000673 -0.0002645 0.0000524 0.0006796 0.0002211 0.0001197
0.0002314 -0.0007504 0.0000567 0.0002698 0.0003855 -0.0007947 -0.0000685 -0.0006088 -0.0001064 -0.0000502 -0.0000960 -0.0001597 -0.0001692 0.0001858 -0.0002697 -0.0001405 -0.0000831 -0.0000474 0.0000579 -0.0005382 0.0000563 -0.0000324 0.0000373 0.0000245 -0.0000326 0.0000278 0.0001477 0.0000883 0.0001698 -0.0000472 0.0001531 0.0002494 0.0001354 0.0001667 0.0000905 0.0003241 0.0001455 -0.0001945 0.0000661 -0.0002576 0.0000481 0.0006837 0.0002205 0.0001320
0.0002361 -0.0007575 0.0000551 0.0002935 0.0004028 -0.0008024 -0.0000602 -0.0006189 -0.0001127 -0.0000488 -0.0000974 -0.0001578 -0.0001762 0.0001927 -0.0002798 -0.0001305 -0.0000858 -0.0000413 0.0000659 -0.0005582 0.0000554 -0.0000115 0.0000355 0.0000186 -0.0000362 0.0000284 0.0001475 0.0000888 0.0001668 -0.0000349 0.0001508 0.0002762 0.0001350 0.0002067 0.0000867 0.0003273 0.0001451 -0.0001712 0.0000651 -0.0002440 0.0000436 0.0006898 0.0002201 0.0001498
0.0002495 -0.0007807 0.0000527 0.0003223 0.0004364 -0.0008321 -0.0000682 -0.0006223 -0.0001320 -0.0000371 -0.0001057 -0.0001536 -0.0001921 0.0002075 -0.0002928 -0.0001270 -0.0000934 -0.0000308 0.0000666 -0.0005802 0.0000531 0.0000155 0.0000301 0.0000164 -0.0000420 0.0000293 0.0001457 0.0000941 0.0001653 -0.0000200 0.0001493 0.0003071 0.0001333 0.0002538 0.0000825 0.0003327 0.0001443 -0.0001441 0.0000636 -0.0002278 0.0000379 0.0006989 0.0002201 0.0001698
0.0002644 -0.0008107 0.0000492 0.0003522 0.0004784 -0.0008750 -0.0000957 -0.0006229 -0.0001543 -0.0000334 -0.0001102 -0.0001521 -0.0002012 0.0002162 -0.0003041 -0.0001232 -0.0000981 -0.0000292 0.0000666 -0.0006029 0.0000496 0.0000304 0.0000335 0.0000073 -0.0000475 0.0000292 0.0001445 0.0000947 0.0001630 -0.0000153 0.0001480 0.0003283 0.0001325 0.0002806 0.0000796 0.0003352 0.0001446 -0.0001284 0.0000628 -0.0002250 0.0000335 0.0006994 0.0002210 0.0001786
0.0002820 -0.0008432 0.0000500 0.0003748 0.0005102 -0.0009092 -0.0000826 -0.0006411 -0.0001703 -0.0000315 -0.0001143 -0.0001591 -0.0002064 0.0002206 -0.0003170 -0.0001127 -0.0001012 -0.0000269 0.0000672 -0.0006211 0.0000481 0.0000396 0.0000352 0.0000007 -0.0000517 0.0000270 0.0001439 0.0000929 0.0001623 -0.0000172 0.0001474 0.0003432 0.0001320 0.0002984 0.0000774 0.0003355 0.0001442 -0.0001162 0.0000622 -0.0002261 0.0000294 0.0006958 0.0002211 0.0001821
0.0002999 -0.0008707 0.0000477 0.0003926 0.0005478 -0.0009510 -0.0000970 -0.0006562 -0.0001959 -0.0000298 -0.0001126 -0.0001642 -0.0002038 0.0002174 -0.0003245 -0.0001110 -0.0001033 -0.0000304 0.0000670 -0.0006387 0.0000451 0.0000475 0.0000339 -0.0000088 -0.0000555 0.0000263 0.0001443 0.0000889 0.0001628 -0.0000201 0.0001464 0.0003587 0.0001312 0.0003211 0.0000741 0.0003371 0.0001437 -0.0000997 0.0000615 -0.0002220 0.0000225 0.0006933 0.0002207 0.0001902
0.0003131 -0.0008993 0.0000480 0.0004116 0.0005820 -0.0009920 -0.0000762 -0.0006895 -0.0002175 -0.0000353 -0.0001157 -0.0001689 -0.0002020 0.0002154 -0.0003318 -0.0001073 -0.0001051 -0.0000241 0.0000637 -0.0006515 0.0000471 0.0000642 0.0000298 -0.0000194 -0.0000597 0.0000274 0.0001433 0.0000823 0.0001599 -0.0000105 0.0001449 0.0003825 0.0001299 0.0003570 0.0000713 0.0003445 0.0001431 -0.0000766 0.0000605 -0.0002085 0.0000145 0.0006952 0.0002197 0.0002046
0.0003233 -0.0009214 0.0000463 0.0004335 0.0006140 -0.0010279 -0.0000885 -0.0007050 -0.0002386 -0.0000328 -0.0001219 -0.0001676 -0.0001925 0.0002061 -0.0003388 -0.0000992 -0.0001064 -0.0000191 0.0000623 -0.0006594 0.0000462 0.0000870 0.0000255 -0.0000244 -0.0000625 0.0000303 0.0001411 0.0000807 0.0001586 -0.0000009 0.0001425 0.0004083 0.0001287 0.0003948 0.0000702 0.0003556 0.0001422 -0.0000513 0.0000590 -0.0001932 0.0000071 0.0007023 0.0002189 0.0002220
0.0003257 -0.0009356 0.0000418 0.0004576 0.0006422 -0.0010550 -0.0000901 -0.0007109 -0.0002562 -0.0000271 -0.0001245 -0.0001710 -0.0001983 0.0002114 -0.0003441 -0.0000907 -0.0001102 -0.0000121 0.0000585 -0.0006634 0.0000438 0.0001116 0.0000234 -0.0000290 -0.0000657 0.0000330 0.0001428 0.0000788 0.0001554 0.0000135 0.0001405 0.0004333 0.0001276 0.0004288 0.0000693 0.0003681 0.0001410 -0.0000297 0.0000564 -0.0001798 0.0000013 0.0007069 0.0002187 0.0002333
0.0003347 -0.0009602 0.0000394 0.0004795 0.0006742 -0.0010958 -0.0000906 -0.0007268 -0.0002758 -0.0000187 -0.0001340 -0.0001691 -0.0002031 0.0002160 -0.0003490 -0.0000836 -0.0001078 -0.0000127 0.0000564 -0.0006681 0.0000429 0.0001244 0.0000225 -0.0000281 -0.0000691 0.0000385 0.0001387 0.0000879 0.0001546 0.0000132 0.0001370 0.0004497 0.0001256 0.0004470 0.0000706 0.0003803 0.0001409 -0.0000168 0.0000542 -0.0001789 -0.0000087 0.0007079 0.0002193 0.0002351
0.0003414 -0.0009780 0.0000377 0.0004974 0.0006923 -0.0011096 -0.0000794 -0.0007374 -0.0002756 -0.0000237 -0.0001371 -0.0001702 -0.0002135 0.0002262 -0.0003555 -0.0000722 -0.0001085 -0.0000094 0.0000571 -0.0006696 0.0000395 0.0001375 0.0000263 -0.0000283 -0.0000712 0.0000421 0.0001387 0.0000928 0.0001539 0.0000040 0.0001344 0.0004593 0.0001258 0.0004578 0.0000731 0.0003954 0.0001410 -0.0000103 0.0000519 -0.0001871 -0.0000147 0.0007060 0.0002211 0.0002318
0.0003565 -0.0009999 0.0000378 0.0005132 0.0007020 -0.0011171 -0.0000317 -0.0007797 -0.0002816 -0.0000053 -0.0001367 -0.0001799 -0.0002212 0.0002339 -0.0003614 -0.0000568 -0.0001112 -0.0000066 0.0000604 -0.0006655 0.0000372 0.0001464 0.0000274 -0.0000234 -0.0000722 0.0000436 0.0001357 0.0001059 0.0001532 -0.0000045 0.0001308 0.0004740 0.0001263 0.0004781 0.0000759 0.0004126 0.0001411 0.0000016 0.0000486 -0.0001904 -0.0000224 0.0007072 0.0002231 0.0002374
0.0003646 -0.0010126 0.0000377 0.0005329 0.0007185 -0.0011277 -0.0000327 -0.0007830 -0.0002798 0.0000102 -0.0001454 -0.0001797 -0.0002233 0.0002369 -0.0003732 -0.0000378 -0.0001169 -0.0000018 0.0000560 -0.0006594 0.0000328 0.0001657 0.0000192 -0.0000124 -0.0000723 0.0000480 0.0001311 0.0001221 0.0001520 -0.0000023 0.0001276 0.0004943 0.0001257 0.0005072 0.0000779 0.0004344 0.0001406 0.0000163 0.0000447 -0.0001888 -0.0000301 0.0007132 0.0002255 0.0002448
0.0003799 -0.0010357 0.0000354 0.0005555 0.0007304 -0.0011306 -0.0000278 -0.0007814 -0.0002792 0.0000271 -0.0001530 -0.0001880 -0.0002437 0.0002570 -0.0003836 -0.0000136 -0.0001193 -0.0000010 0.0000507 -0.0006458 0.0000292 0.0001864 0.0000162 -0.0000087 -0.0000713 0.0000531 0.0001313 0.0001293 0.0001524 -0.0000002 0.0001251 0.0005155 0.0001249 0.0005397 0.0000808 0.0004576 0.0001397 0.0000310 0.0000403 -0.0001854 -0.0000364 0.0007230 0.0002266 0.0002567
0.0003863 -0.0010228 0.0000315 0.0005870 0.0007290 -0.0011112 -0.0000208 -0.0007741 -0.0002706 0.0000453 -0.0001628 -0.0002035 -0.0002472 0.0002609 -0.0003916 0.0000008 -0.0001177 0.0000017 0.0000517 -0.0006459 0.0000250 0.0002040 0.0000132 -0.0000216 -0.0000705 0.0000552 0.0001307 0.0001257 0.0001529 0.0000060 0.0001221 0.0005334 0.0001235 0.0005589 0.0000820 0.0004721 0.0001378 0.0000407 0.0000368 -0.0001818 -0.0000421 0.0007247 0.0002268 0.0002611
0.0003961 -0.0010416 0.0000269 0.0006019 0.0007466 -0.0011291 -0.0000007 -0.0007968 -0.0002790 0.0000458 -0.0001760 -0.0002175 -0.0002521 0.0002658 -0.0003962 0.0000167 -0.0001189 0.0000094 0.0000568 -0.0006402 0.0000223 0.0002140 0.0000073 -0.0000238 -0.0000719 0.0000594 0.0001309 0.0001259 0.0001540 -0.0000029 0.0001205 0.0005414 0.0001240 0.0005654 0.0000845 0.0004878 0.0001372 0.0000428 0.0000330 -0.0001905 -0.0000459 0.0007183 0.0002277 0.0002605
0.0004018 -0.0010441 0.0000286 0.0006138 0.0007580 -0.0011335 0.0000071 -0.0008169 -0.0002772 0.0000509 -0.0001858 -0.0002326 -0.0002509 0.0002644 -0.0003971 0.0000257 -0.0001182 0.0000138 0.0000549 -0.0006314 0.0000188 0.0002183 0.0000036 -0.0000328 -0.0000719 0.0000590 0.0001296 0.0001226 0.0001547 -0.0000130 0.0001183 0.0005469 0.0001235 0.0005658 0.0000873 0.0004981 0.0001359 0.0000429 0.0000303 -0.0002008 -0.0000524 0.0007093 0.0002289 0.0002576
0.0004010 -0.0010495 0.0000285 0.0006255 0.0007764 -0.0011473 -0.0000248 -0.0008080 -0.0002752 0.0000531 -0.0002050 -0.0002474 -0.0002488 0.0002625 -0.0004022 0.0000370 -0.0001224 0.0000231 0.0000543 -0.0006271 0.0000186 0.0002273 0.0000015 -0.0000407 -0.0000728 0.0000605 0.0001275 0.0001218 0.0001571 -0.0000149 0.0001168 0.0005598 0.0001226 0.0005864 0.0000907 0.0005138 0.0001346 0.0000530 0.0000270 -0.0001994 -0.0000619 0.0007154 0.0002304 0.0002666
0.0004100 -0.0010553 0.0000255 0.0006444 0.0007832 -0.0011408 -0.0000211 -0.0008169 -0.0002638 0.0000603 -0.0002201 -0.0002574 -0.0002566 0.0002705 -0.0004040 0.0000527 -0.0001241 0.0000310 0.0000540 -0.0006162 0.0000154 0.0002476 -0.0000046 -0.0000389 -0.0000729 0.0000657 0.0001259 0.0001241 0.0001565 -0.0000073 0.0001148 0.0005777 0.0001222 0.0006118 0.0000941 0.0005349 0.0001333 0.0000647 0.0000228 -0.0001960 -0.0000681 0.0007210 0.0002327 0.0002789
0.0004103 -0.0010488 0.0000260 0.0006618 0.0007873 -0.0011293 -0.0000148 -0.0008192 -0.0002561 0.0000810 -0.0002277 -0.0002715 -0.0002668 0.0002809 -0.0004040 0.0000691 -0.0001243 0.0000401 0.0000561 -0.0006002 0.0000128 0.0002673 -0.0000051 -0.0000400 -0.0000717 0.0000730 0.0001213 0.0001294 0.0001581 0.0000014 0.0001125 0.0005985 0.0001213 0.0006389 0.0000974 0.0005608 0.0001322 0.0000780 0.0000185 -0.0001894 -0.0000717 0.0007263 0.0002337 0.0002937
0.0004174 -0.0010458 0.0000240 0.0006822 0.0007912 -0.0011168 -0.0000422 -0.0007999 -0.0002459 0.0000987 -0.0002374 -0.0002838 -0.0002824 0.0002959 -0.0004037 0.0000871 -0.0001214 0.0000500 0.0000652 -0.0005845 0.0000119 0.0002797 -0.0000137 -0.0000347 -0.0000706 0.0000797 0.0001146 0.0001339 0.0001611 0.0000036 0.0001115 0.0006076 0.0001226 0.0006428 0.0001032 0.0005810 0.0001315 0.0000761 0.0000148 -0.0002001 -0.0000795 0.0007365 0.0002349 0.0002971
0.0004206 -0.0010386 0.0000277 0.0006949 0.0007857 -0.0010877 -0.0000576 -0.0007789 -0.0002314 0.0001211 -0.0002526 -0.0002906 -0.0002908 0.0003038 -0.0004027 0.0000911 -0.0001194 0.0000629 0.0000687 -0.0005686 0.0000125 0.0002832 -0.0000176 -0.0000341 -0.0000673 0.0000895 0.0001127 0.0001352 0.0001689 0.0000071 0.0001111 0.0006144 0.0001220 0.0006417 0.0001078 0.0006002 0.0001306 0.0000725 0.0000120 -0.0002109 -0.0000873 0.0007432 0.0002359 0.0002937
0.0004242 -0.0010322 0.0000238 0.0007062 0.0007711 -0.0010476 -0.0000462 -0.0007790 -0.0001999 0.0001240 -0.0002644 -0.0003020 -0.0002959 0.0003086 -0.0003993 0.0001056 -0.0001123 0.0000676 0.0000732 -0.0005323 0.0000164 0.0002876 -0.0000173 -0.0000377 -0.0000612 0.0000976 0.0001046 0.0001255 0.0001792 0.0000180 0.0001099 0.0006184 0.0001232 0.0006297 0.0001130 0.0006167 0.0001281 0.0000570 0.0000097 -0.0002276 -0.0000912 0.0007512 0.0002361 0.0002863
0.0004149 -0.0010088 0.0000231 0.0007097 0.0007443 -0.0010007 -0.0000407 -0.0007743 -0.0001731 0.0001343 -0.0002775 -0.0003117 -0.0002976 0.0003098 -0.0003863 0.0000964 -0.0001053 0.0000836 0.0000794 -0.0004982 0.0000186 0.0003063 -0.0000207 -0.0000317 -0.0000566 0.0001120 0.0000977 0.0001142 0.0001907 0.0000416 0.0001085 0.0006355 0.0001213 0.0006406 0.0001176 0.0006360 0.0001246 0.0000552 0.0000072 -0.0002265 -0.0000971 0.0007700 0.0002353 0.0002903
0.0004073 -0.0009782 0.0000212 0.0007219 0.0007119 -0.0009344 -0.0000315 -0.0007689 -0.0001366 0.0001479 -0.0002934 -0.0003238 -0.0003130 0.0003247 -0.0003706 0.0000884 -0.0000997 0.0000975 0.0000799 -0.0004417 0.0000202 0.0003406 -0.0000260 -0.0000297 -0.0000518 0.0001200 0.0000845 0.0000953 0.0002001 0.0000753 0.0001081 0.0006563 0.0001213 0.0006512 0.0001204 0.0006552 0.0001198 0.0000500 0.0000040 -0.0002217 -0.0000984 0.0007933 0.0002341 0.0002981
0.0003947 -0.0009536 0.0000208 0.0007296 0.0006793 -0.0008885 -0.0000367 -0.0007672 -0.0001077 0.0001545 -0.0003068 -0.0003313 -0.0003171 0.0003285 -0.0003517 0.0000688 -0.0000933 0.0001181 0.0000828 -0.0004009 0.0000222 0.0003678 -0.0000284 -0.0000219 -0.0000474 0.0001325 0.0000719 0.0000774 0.0002087 0.0001093 0.0001072 0.0006746 0.0001191 0.0006558 0.0001248 0.0006738 0.0001156 0.0000414 0.0000023 -0.0002218 -0.0000996 0.0008149 0.0002329 0.0003003
0.0003846 -0.0009179 0.0000174 0.0007383 0.0006415 -0.0008299 -0.0000603 -0.0007317 -0.0000816 0.0001757 -0.0003177 -0.0003492 -0.0003105 0.0003225 -0.0003300 0.0000493 -0.0000847 0.0001287 0.0000931 -0.0003560 0.0000247 0.0003876 -0.0000306 -0.0000229 -0.0000428 0.0001377 0.0000583 0.0000483 0.0002211 0.0001312 0.0001065 0.0006853 0.0001189 0.0006428 0.0001280 0.0006848 0.0001105 0.0000207 0.0000012 -0.0002315 -0.0001020 0.0008332 0.0002310 0.0002962
0.0003719 -0.0008852 0.0000158 0.0007426 0.0005958 -0.0007717 -0.0000579 -0.0007339 -0.0000554 0.0001852 -0.0003179 -0.0003667 -0.0003174 0.0003280 -0.0003032 0.0000137 -0.0000790 0.0001482 0.0000974 -0.0003147 0.0000287 0.0004020 -0.0000288 -0.0000251 -0.0000399 0.0001448 0.0000445 0.0000115 0.0002293 0.0001548 0.0001060 0.0006941 0.0001167 0.0006269 0.0001303 0.0006927 0.0001060 0.0000002 0.0000007 -0.0002411 -0.0001014 0.0008484 0.0002304 0.0002877
0.0003637 -0.0008594 0.0000166 0.0007395 0.0005566 -0.0007239 -0.0000817 -0.0007450 -0.0000332 0.0001914 -0.0003383 -0.0003779 -0.0003073 0.0003178 -0.0002810 -0.0000135 -0.0000700 0.0001615 0.0001074 -0.0002766 0.0000344 0.0004162 -0.0000298 -0.0000332 -0.0000377 0.0001452 0.0000286 -0.0000341 0.0002412 0.0001736 0.0001062 0.0007023 0.0001163 0.0006131 0.0001313 0.0006994 0.0001006 -0.0000215 0.0000016 -0.0002514 -0.0001050 0.0008727 0.0002288 0.0002864
0.0003458 -0.0008197 0.0000175 0.0007338 0.0005010 -0.0006632 -0.0000871 -0.0007592 -0.0000143 0.0002051 -0.0003438 -0.0003900 -0.0003066 0.0003162 -0.0002524 -0.0000564 -0.0000605 0.0001846 0.0001127 -0.0002388 0.0000356 0.0004449 -0.0000325 -0.0000403 -0.0000339 0.0001478 0.0000130 -0.0000898 0.0002492 0.0002110 0.0001055 0.0007227 0.0001135 0.0006181 0.0001307 0.0007083 0.0000948 -0.0000276 0.0000019 -0.0002415 -0.0001003 0.0008993 0.0002264 0.0002985
0.0003312 -0.0007903 0.0000138 0.0007314 0.0004584 -0.0006304 -0.0001136 -0.0007646 -0.0000047 0.0002238 -0.0003488 -0.0004099 -0.0003153 0.0003234 -0.0002082 -0.0001143 -0.0000499 0.0002072 0.0001192 -0.0001963 0.0000429 0.0004847 -0.0000316 -0.0000438 -0.0000282 0.0001314 -0.0000101 -0.0001714 0.0002651 0.0002624 0.0001034 0.0007507 0.0001101 0.0006100 0.0001236 0.0006984 0.0000813 -0.0000847 0.0000019 -0.0002368 -0.0001024 0.0009336 0.0002268 0.0002968
0.0002725 -0.0009740 -0.0000021 0.0006425 0.0003624 -0.0007015 -0.0001235 -0.0009065 0.0000117 0.0001150 -0.0002945 -0.0004424 -0.0002196 0.0002153 -0.0001352 -0.0001770 -0.0001104 0.0001746 0.0000327 -0.0001779 0.0000234 0.0004316 -0.0000101 0.0000065 0.0001492 -0.0002003 -0.0001538 -0.0005971 0.0002180 0.0001094 0.0000957 0.0007481 0.0001049 0.0005651 0.0000603 0.0005530 0.0000553 -0.0001795 -0.0000053 -0.0002464 -0.0001799 0.0007819 0.0002192 0.0002664
0.0002054 -0.0012447 -0.0000157 0.0005222 0.0002638 -0.0008501 -0.0001070 -0.0010922 0.0000294 -0.0000124 -0.0002100 -0.0004801 -0.0000668 0.0000272 -0.0000596 -0.0002167 -0.0001718 0.0001155 -0.0000580 -0.0001184 -0.0000004 0.0003654 0.0000291 0.0000619 0.0003242 -0.0005524 -0.0003068 -0.0010469 0.0001677 -0.0000673 0.0000867 0.0007366 0.0001021 0.0005117 -0.0000040 0.0003998 0.0000314 -0.0002698 -0.0000103 -0.0002587 -0.0002569 0.0006249 0.0002127 0.0002341
0.0001229 -0.0015205 -0.0000280 0.0003886 0.0001589 -0.0010048 -0.0001225 -0.0012686 0.0000437 -0.0001490 -0.0001277 -0.0005226 0.0000825 -0.0001600 0.0000143 -0.0002758 -0.0002412 0.0000520 -0.0001539 -0.0000756 -0.0000240 0.0002899 0.0000667 0.0001029 0.0004956 -0.0009166 -0.0004641 -0.0015127 0.0001194 -0.0002482 0.0000756 0.0007186 0.0000981 0.0004478 -0.0000689 0.0002469 0.0000074 -0.0003649 -0.0000140 -0.0002729 -0.0003299 0.0004704 0.0002092 0.0002039
0.0000446 -0.0018544 -0.0000425 0.0002356 0.0000767 -0.0011938 -0.0001172 -0.0014365 0.0000494 -0.0002881 -0.0000602 -0.0005474 0.0002268 -0.0003432 0.0000961 -0.0003424 -0.0003249 -0.0000219 -0.0002384 -0.0000160 -0.0000509 0.0002081 0.0000990 0.0001649 0.0006685 -0.0012777 -0.0006250 -0.0019751 0.0000759 -0.0004356 0.0000625 0.0006975 0.0000935 0.0003925 -0.0001314 0.0001069 -0.0000161 -0.0004542 -0.0000188 -0.0002853 -0.0004009 0.0003239 0.0002086 0.0001918
-0.0000427 -0.0021764 -0.0000643 0.0000825 -0.0000279 -0.0013416 -0.0001030 -0.0015699 0.0000707 -0.0004129 0.0000107 -0.0005839 0.0003769 -0.0005298 0.0001879 -0.0004178 -0.0004038 -0.0001170 -0.0003152 0.0000361 -0.0000778 0.0001125 0.0001345 0.0002149 0.0008473 -0.0016373 -0.0007921 -0.0024470 0.0000311 -0.0005979 0.0000477 0.0006799 0.0000864 0.0003498 -0.0001924 -0.0000264 -0.0000388 -0.0005212 -0.0000230 -0.0002846 -0.0004686 0.0001870 0.0002092 0.0001897
