-0.0000000 -0.0000000 -0.0000000 -0.0000000 -0.0000000 -0.0000000 -0.0000000 -0.0000000 -0.0000000 -0.0000000 -0.0000000 -0.0000000 -0.0000000 -0.0000000 -0.0000000 -0.0000000 -0.0000000 -0.0000000 -0.0000000 -0.0000000 -0.0000000 -0.0000000 -0.0000000 -0.0000000 -0.0000000 -0.0000000 -0.0000000 -0.0000000 -0.0000000 -0.0000000 -0.0000000 -0.0000000 -0.0000000 -0.0000000 -0.0000000 -0.0000000 -0.0000000 -0.0000000 -0.0000000 -0.0000000 -0.0000000 -0.0000000 -0.0000000 -0.0000000
-0.0000000 -0.0000000 -0.0000000 -0.0000000 -0.0000000 -0.0000000 -0.0000000 -0.0000000 -0.0000000 -0.0000000 -0.0000000 -0.0000000 -0.0000000 -0.0000000 -0.0000000 -0.0000000 -0.0000000 -0.0000000 -0.0000000 -0.0000000 -0.0000000 -0.0000000 -0.0000000 -0.0000000 -0.0000000 -0.0000000 -0.0000000 -0.0000000 -0.0000000 -0.0000000 -0.0000000 -0.0000000 -0.0000000 -0.0000000 -0.0000000 -0.0000000 -0.0000000 -0.0000000 -0.0000000 -0.0000000 -0.0000000 -0.0000000 -0.0000000 -0.0000000
-0.0000000 -0.0000000 -0.0000000 -0.0000000 -0.0000000 -0.0000000 -0.0000000 -0.0000000 -0.0000000 -0.0000000 -0.0000000 -0.0000000 -0.0000000 -0.0000000 -0.0000000 -0.0000000 -0.0000000 -0.0000000 -0.0000000 -0.0000000 -0.0000000 -0.0000000 -0.0000000 -0.0000000 -0.0000000 -0.0000000 -0.0000000 -0.0000000 -0.0000000 -0.0000000 -0.0000000 -0.0000000 -0.0000000 -0.0000000 -0.0000000 -0.0000000 -0.0000000 -0.0000000 -0.0000000 -0.0000000 -0.0000000 -0.0000000 -0.0000000 -0.0000000
-0.0000000 -0.0000000 -0.0000000 -0.0000000 -0.0000000 -0.0000000 -0.0000000 -0.0000000 -0.0000000 -0.0000000 -0.0000000 -0.0000000 -0.0000000 -0.0000000 -0.0000000 -0.0000000 -0.0000000 -0.0000000 -0.0000000 -0.0000000 -0.0000000 -0.0000000 -0.0000000 -0.0000000 -0.0000000 -0.0000000 -0.0000000 -0.0000000 -0.0000000 -0.0000000 -0.0000000 -0.0000000 -0.0000000 -0.0000000 -0.0000000 -0.0000000 -0.0000000 -0.0000000 -0.0000000 -0.0000000 -0.0000000 -0.0000000 -0.0000000 -0.0000000
-0.0000000 -0.0000000 -0.0000000 -0.0000000 -0.0000000 -0.0000000 -0.0000000 -0.0000000 -0.0000000 -0.0000000 -0.0000000 -0.0000000 -0.0000000 -0.0000000 -0.0000000 -0.0000000 -0.0000000 -0.0000000 -0.0000000 -0.0000000 -0.0000000 -0.0000000 -0.0000000 -0.0000000 -0.0000000 -0.0000000 -0.0000000 -0.0000000 -0.0000000 -0.0000000 -0.0000000 -0.0000000 -0.0000000 -0.0000000 -0.0000000 -0.0000000 -0.0000000 -0.0000000 -0.0000000 -0.0000000 -0.0000000 -0.0000000 -0.0000000 -0.0000000
-0.0000000 -0.0000000 -0.0000000 -0.0000000 -0.0000000 -0.0000000 -0.0000000 -0.0000000 -0.0000000 -0.0000000 -0.0000000 -0.0000000 -0.0000000 -0.0000000 -0.0000000 -0.0000000 -0.0000000 -0.0000000 -0.0000000 -0.0000000 -0.0000000 -0.0000000 -0.0000000 -0.0000000 -0.0000000 -0.0000000 -0.0000000 -0.0000000 -0.0000000 -0.0000000 -0.0000000 -0.0000000 -0.0000000 -0.0000000 -0.0000000 -0.0000000 -0.0000000 -0.0000000 -0.0000000 -0.0000000 -0.0000000 -0.0000000 -0.0000000 -0.0000000
-0.0000000 -0.0000000 -0.0000000 -0.0000000 -0.0000000 -0.0000000 -0.0000000 -0.0000000 -0.0000000 -0.0000000 -0.0000000 -0.0000000 -0.0000000 -0.0000000 -0.0000000 -0.0000000 -0.0000000 -0.0000000 -0.0000000 -0.0000000 -0.0000000 -0.0000000 -0.0000000 -0.0000000 -0.0000000 -0.0000000 -0.0000000 -0.0000000 -0.0000000 -0.0000000 -0.0000000 -0.0000000 -0.0000000 -0.0000000 -0.0000000 -0.0000000 -0.0000000 -0.0000000 -0.0000000 -0.0000000 -0.0000000 -0.0000000 -0.0000000 -0.0000000
-0.0000000 -0.0000000 -0.0000000 -0.0000000 -0.0000000 -0.0000000 -0.0000000 -0.0000000 -0.0000000 -0.0000000 -0.0000000 -0.0000000 -0.0000000 -0.0000000 -0.0000000 -0.0000000 -0.0000000 -0.0000000 -0.0000000 -0.0000000 -0.0000000 -0.0000000 -0.0000000 -0.0000000 -0.0000000 -0.0000000 -0.0000000 -0.0000000 -0.0000000 -0.0000000 -0.0000000 -0.0000000 -0.0000000 -0.0000000 -0.0000000 -0.0000000 -0.0000000 -0.0000000 -0.0000000 -0.0000000 -0.0000000 -0.0000000 -0.0000000 -0.0000000
-0.0000000 -0.0000000 -0.0000000 -0.0000000 -0.0000000 -0.0000000 -0.0000000 -0.0000000 -0.0000000 -0.0000000 -0.0000000 -0.0000000 -0.0000000 -0.0000000 -0.0000000 -0.0000000 -0.0000000 -0.0000000 -0.0000000 -0.0000000 -0.0000000 -0.0000000 -0.0000000 -0.0000000 -0.0000000 -0.0000000 -0.0000000 -0.0000000 -0.0000000 -0.0000000 -0.0000000 -0.0000000 -0.0000000 -0.0000000 -0.0000000 -0.0000000 -0.0000000 -0.0000000 -0.0000000 -0.0000000 -0.0000000 -0.0000000 -0.0000000 -0.0000000
-0.0000000 -0.0000000 -0.0000000 -0.0000000 -0.0000000 -0.0000000 -0.0000000 -0.0000000 -0.0000000 -0.0000000 -0.0000000 -0.0000000 -0.0000000 -0.0000000 -0.0000000 -0.0000000 -0.0000000 -0.0000000 -0.0000000 -0.0000000 -0.0000000 -0.0000000 -0.0000000 -0.0000000 -0.0000000 -0.0000000 -0.0000000 -0.0000000 -0.0000000 -0.0000000 -0.0000000 -0.0000000 -0.0000000 -0.0000000 -0.0000000 -0.0000000 -0.0000000 -0.0000000 -0.0000000 -0.0000000 -0.0000000 -0.0000000 -0.0000000 -0.0000000
-0.0000000 -0.0000000 -0.0000000 -0.0000000 -0.0000000 -0.0000000 -0.0000000 -0.0000000 -0.0000000 -0.0000000 -0.0000000 -0.0000000 -0.0000000 -0.0000000 -0.0000000 -0.0000000 -0.0000000 -0.0000000 -0.0000000 -0.0000000 -0.0000000 -0.0000000 -0.0000000 -0.0000000 -0.0000000 -0.0000000 -0.0000000 -0.0000000 -0.0000000 -0.0000000 -0.0000000 -0.0000000 -0.0000000 -0.0000000 -0.0000000 -0.0000000 -0.0000000 -0.0000000 -0.0000000 -0.0000000 -0.0000000 -0.0000000 -0.0000000 -0.0000000
-0.0000000 -0.0000000 -0.0000000 -0.0000000 -0.0000000 -0.0000000 -0.0000000 -0.0000000 -0.0000000 -0.0000000 -0.0000000 -0.0000000 -0.0000000 -0.0000000 -0.0000000 -0.0000000 -0.0000000 -0.0000000 -0.0000000 -0.0000000 -0.0000000 -0.0000000 -0.0000000 -0.0000000 -0.0000000 -0.0000000 -0.0000000 -0.0000000 -0.0000000 -0.0000000 -0.0000000 -0.0000000 -0.0000000 -0.0000000 -0.0000000 -0.0000000 -0.0000000 -0.0000000 -0.0000000 -0.0000000 -0.0000000 -0.0000000 -0.0000000 -0.0000000
-0.0000000 -0.0000000 -0.0000000 -0.0000000 -0.0000000 -0.0000000 -0.0000000 -0.0000000 -0.0000000 -0.0000000 -0.0000000 -0.0000000 -0.0000000 -0.0000000 -0.0000000 -0.0000000 -0.0000000 -0.0000000 -0.0000000 -0.0000000 -0.0000000 -0.0000000 -0.0000000 -0.0000000 -0.0000000 -0.0000000 -0.0000000 -0.0000000 -0.0000000 -0.0000000 -0.0000000 -0.0000000 -0.0000000 -0.0000000 -0.0000000 -0.0000000 -0.0000000 -0.0000000 -0.0000000 -0.0000000 -0.0000000 -0.0000000 -0.0000000 -0.0000000
-0.0000000 -0.0000000 -0.0000000 -0.0000000 -0.0000000 -0.0000000 -0.0000000 -0.0000000 -0.0000000 -0.0000000 -0.0000000 -0.0000000 -0.0000000 -0.0000000 -0.0000000 -0.0000000 -0.0000000 -0.0000000 -0.0000000 -0.0000000 -0.0000000 -0.0000000 -0.0000000 -0.0000000 -0.0000000 -0.0000000 -0.0000000 -0.0000000 -0.0000000 -0.0000000 -0.0000000 -0.0000000 -0.0000000 -0.0000000 -0.0000000 -0.0000000 -0.0000000 -0.0000000 -0.0000000 -0.0000000 -0.0000000 -0.0000000 -0.0000000 -0.0000000
-0.0000000 -0.0000000 -0.0000000 -0.0000000 -0.0000000 -0.0000000 -0.0000000 -0.0000000 -0.0000000 -0.0000000 -0.0000000 -0.0000000 -0.0000000 -0.0000000 -0.0000000 -0.0000000 -0.0000000 -0.0000000 -0.0000000 -0.0000000 -0.0000000 -0.0000000 -0.0000000 -0.0000000 -0.0000000 -0.0000000 -0.0000000 -0.0000000 -0.0000000 -0.0000000 -0.0000000 -0.0000000 -0.0000000 -0.0000000 -0.0000000 -0.0000000 -0.0000000 -0.0000000 -0.0000000 -0.0000000 -0.0000000 -0.0000000 -0.0000000 -0.0000000
-0.0000000 -0.0000000 -0.0000000 -0.0000000 -0.0000000 -0.0000000 -0.0000000 -0.0000000 -0.0000000 -0.0000000 -0.0000000 -0.0000000 -0.0000000 -0.0000000 -0.0000000 -0.0000000 -0.0000000 -0.0000000 -0.0000000 -0.0000000 -0.0000000 -0.0000000 -0.0000000 -0.0000000 -0.0000000 -0.0000000 -0.0000000 -0.0000000 -0.0000000 -0.0000000 -0.0000000 -0.0000000 -0.0000000 -0.0000000 -0.0000000 -0.0000000 -0.0000000 -0.0000000 -0.0000000 -0.0000000 -0.0000000 -0.0000000 -0.0000000 -0.0000000
-0.0000000 -0.0000000 -0.0000000 -0.0000000 -0.0000000 -0.0000000 -0.0000000 -0.0000000 -0.0000000 -0.0000000 -0.0000000 -0.0000000 -0.0000000 -0.0000000 -0.0000000 -0.0000000 -0.0000000 -0.0000000 -0.0000000 -0.0000000 -0.0000000 -0.0000000 -0.0000000 -0.0000000 -0.0000000 -0.0000000 -0.0000000 -0.0000000 -0.0000000 -0.0000000 -0.0000000 -0.0000000 -0.0000000 -0.0000000 -0.0000000 -0.0000000 -0.0000000 -0.0000000 -0.0000000 -0.0000000 -0.0000000 -0.0000000 -0.0000000 -0.0000000
-0.0000000 -0.0000000 -0.0000000 -0.0000000 -0.0000000 -0.0000000 -0.0000000 -0.0000000 -0.0000000 -0.0000000 -0.0000000 -0.0000000 -0.0000000 -0.0000000 -0.0000000 -0.0000000 -0.0000000 -0.0000000 -0.0000000 -0.0000000 -0.0000000 -0.0000000 -0.0000000 -0.0000000 -0.0000000 -0.0000000 -0.0000000 -0.0000000 -0.0000000 -0.0000000 -0.0000000 -0.0000000 -0.0000000 -0.0000000 -0.0000000 -0.0000000 -0.0000000 -0.0000000 -0.0000000 -0.0000000 -0.0000000 -0.0000000 -0.0000000 -0.0000000
-0.0000000 -0.0000000 -0.0000000 -0.0000000 -0.0000000 -0.0000000 -0.0000000 -0.0000000 -0.0000000 -0.0000000 -0.0000000 -0.0000000 -0.0000000 -0.0000000 -0.0000000 -0.0000000 -0.0000000 -0.0000000 -0.0000000 -0.0000000 -0.0000000 -0.0000000 -0.0000000 -0.0000000 -0.0000000 -0.0000000 -0.0000000 -0.0000000 -0.0000000 -0.0000000 -0.0000000 -0.0000000 -0.0000000 -0.0000000 -0.0000000 -0.0000000 -0.0000000 -0.0000000 -0.0000000 -0.0000000 -0.0000000 -0.0000000 -0.0000000 -0.0000000
-0.0000000 -0.0000000 -0.0000000 -0.0000000 -0.0000000 -0.0000000 -0.0000000 -0.0000000 -0.0000000 -0.0000000 -0.0000000 -0.0000000 -0.0000000 -0.0000000 -0.0000000 -0.0000000 -0.0000000 -0.0000000 -0.0000000 -0.0000000 -0.0000000 -0.0000000 -0.0000000 -0.0000000 -0.0000000 -0.0000000 -0.0000000 -0.0000000 -0.0000000 -0.0000000 -0.0000000 -0.0000000 -0.0000000 -0.0000000 -0.0000000 -0.0000000 -0.0000000 -0.0000000 -0.0000000 -0.0000000 -0.0000000 -0.0000000 -0.0000000 -0.0000000
-0.0000066 -0.0000009 -0.0000005 -0.0000097 0.0000062 -0.0000261 -0.0000041 -0.0000197 -0.0000026 -0.0000212 -0.0000008 -0.0000025 -0.0000001 -0.0000036 -0.0000039 -0.0000038 -0.0000007 -0.0000062 -0.0000005 -0.0000083 0.0000008 0.0000002 0.0000017 -0.0000130 -0.0000001 -0.0000048 0.0000007 -0.0000052 0.0000030 0.0000001 0.0000002 0.0000029 0.0000034 0.0000010 0.0000006 -0.0000043 0.0000016 -0.0000007 0.0000025 0.0000008 0.0000007 0.0000040 0.0000022 0.0000044
-0.0000226 0.0000133 -0.0000008 -0.0000015 -0.0000019 -0.0000261 0.0000313 -0.0000630 -0.0000026 -0.0000348 -0.0000029 -0.0000062 -0.0000005 -0.0000021 -0.0000007 -0.0000100 -0.0000011 -0.0000090 0.0000001 -0.0000116 0.0000017 0.0000045 0.0000012 -0.0000226 0.0000005 -0.0000095 0.0000019 -0.0000094 0.0000027 0.0000057 -0.0000008 0.0000065 0.0000064 0.0000020 0.0000018 -0.0000081 0.0000050 -0.0000034 0.0000045 0.0000017 0.0000006 0.0000073 0.0000036 0.0000076
-0.0000268 0.0000130 -0.0000002 0.0000033 -0.0000091 -0.0000315 0.0000172 -0.0000602 -0.0000026 -0.0000477 -0.0000023 -0.0000059 -0.0000008 -0.0000016 0.0000045 -0.0000139 -0.0000020 -0.0000112 -0.0000000 -0.0000159 0.0000016 0.0000082 -0.0000001 -0.0000297 0.0000000 -0.0000123 0.0000033 -0.0000127 0.0000034 0.0000083 0.0000002 0.0000052 0.0000084 0.0000039 0.0000016 -0.0000118 0.0000095 -0.0000083 0.0000061 0.0000031 0.0000007 0.0000072 0.0000050 0.0000081
-0.0000256 0.0000033 -0.0000006 0.0000035 -0.0000070 -0.0000409 0.0000397 -0.0000690 -0.0000031 -0.0000621 -0.0000015 -0.0000111 -0.0000007 -0.0000053 0.0000080 -0.0000215 -0.0000017 -0.0000170 -0.0000003 -0.0000220 0.0000035 0.0000044 -0.0000035 -0.0000326 0.0000011 -0.0000186 0.0000039 -0.0000178 0.0000065 0.0000022 0.0000024 -0.0000006 0.0000095 0.0000015 0.0000042 -0.0000177 0.0000139 -0.0000177 0.0000079 -0.0000025 0.0000012 -0.0000018 0.0000066 0.0000010
-0.0000435 0.0000086 -0.0000003 -0.0000099 -0.0000094 -0.0000473 0.0000190 -0.0000706 -0.0000037 -0.0000800 -0.0000012 -0.0000183 0.0000013 -0.0000167 0.0000125 -0.0000290 -0.0000007 -0.0000276 -0.0000006 -0.0000327 0.0000068 -0.0000112 -0.0000047 -0.0000431 0.0000023 -0.0000300 0.0000052 -0.0000262 0.0000085 -0.0000133 0.0000058 -0.0000048 0.0000095 -0.0000092 0.0000066 -0.0000301 0.0000172 -0.0000319 0.0000096 -0.0000169 0.0000021 -0.0000178 0.0000073 -0.0000125
-0.0000372 -0.0000148 -0.0000015 -0.0000268 -0.0000001 -0.0000702 0.0000316 -0.0000974 -0.0000025 -0.0001019 -0.0000019 -0.0000194 0.0000024 -0.0000272 0.0000151 -0.0000423 -0.0000017 -0.0000388 -0.0000014 -0.0000472 0.0000066 -0.0000242 -0.0000062 -0.0000515 0.0000015 -0.0000378 0.0000044 -0.0000312 0.0000111 -0.0000273 0.0000080 0.0000041 0.0000103 -0.0000132 0.0000074 -0.0000373 0.0000192 -0.0000332 0.0000106 -0.0000132 0.0000017 -0.0000131 0.0000087 -0.0000094
-0.0000346 -0.0000170 -0.0000021 -0.0000188 0.0000094 -0.0000917 -0.0000018 -0.0000788 -0.0000011 -0.0001132 -0.0000040 -0.0000220 0.0000025 -0.0000253 0.0000215 -0.0000443 -0.0000023 -0.0000421 -0.0000017 -0.0000516 0.0000078 -0.0000198 -0.0000063 -0.0000569 0.0000026 -0.0000391 0.0000048 -0.0000322 0.0000107 -0.0000199 0.0000099 0.0000178 0.0000116 -0.0000114 0.0000082 -0.0000389 0.0000218 -0.0000329 0.0000116 -0.0000080 0.0000012 -0.0000074 0.0000096 -0.0000043
-0.0000199 -0.0000320 -0.0000015 -0.0000159 0.0000083 -0.0000957 0.0000056 -0.0000767 -0.0000023 -0.0001212 -0.0000045 -0.0000258 0.0000026 -0.0000275 0.0000199 -0.0000349 -0.0000019 -0.0000495 -0.0000020 -0.0000569 0.0000092 -0.0000218 -0.0000068 -0.0000631 0.0000044 -0.0000432 0.0000053 -0.0000347 0.0000120 -0.0000228 0.0000120 0.0000184 0.0000136 -0.0000140 0.0000103 -0.0000447 0.0000240 -0.0000359 0.0000137 -0.0000089 0.0000012 -0.0000078 0.0000099 -0.0000047
0.0000191 -0.0000655 -0.0000025 -0.0000162 0.0000171 -0.0001080 -0.0000097 -0.0000679 0.0000002 -0.0001348 -0.0000048 -0.0000247 0.0000029 -0.0000318 0.0000192 -0.0000356 -0.0000019 -0.0000575 -0.0000020 -0.0000666 0.0000110 -0.0000267 -0.0000074 -0.0000699 0.0000072 -0.0000520 0.0000046 -0.0000392 0.0000133 -0.0000283 0.0000135 0.0000140 0.0000144 -0.0000192 0.0000146 -0.0000553 0.0000261 -0.0000416 0.0000152 -0.0000125 0.0000018 -0.0000162 0.0000112 -0.0000123
0.0000231 -0.0000735 -0.0000043 -0.0000279 0.0000219 -0.0001190 -0.0000296 -0.0000514 -0.0000019 -0.0001489 -0.0000028 -0.0000362 0.0000045 -0.0000432 0.0000238 -0.0000436 -0.0000017 -0.0000694 -0.0000013 -0.0000815 0.0000143 -0.0000431 -0.0000090 -0.0000789 0.0000089 -0.0000629 0.0000041 -0.0000486 0.0000152 -0.0000439 0.0000139 0.0000055 0.0000148 -0.0000309 0.0000171 -0.0000701 0.0000270 -0.0000496 0.0000163 -0.0000257 0.0000030 -0.0000325 0.0000122 -0.0000270
0.0000239 -0.0000883 -0.0000070 -0.0000454 0.0000289 -0.0001350 -0.0000083 -0.0000738 -0.0000063 -0.0001659 -0.0000022 -0.0000462 0.0000060 -0.0000588 0.0000159 -0.0000463 -0.0000015 -0.0000843 -0.0000007 -0.0001021 0.0000196 -0.0000700 -0.0000058 -0.0000966 0.0000107 -0.0000823 0.0000056 -0.0000613 0.0000166 -0.0000710 0.0000156 -0.0000073 0.0000150 -0.0000450 0.0000173 -0.0000852 0.0000295 -0.0000614 0.0000176 -0.0000369 0.0000036 -0.0000428 0.0000135 -0.0000383
0.0000358 -0.0000954 -0.0000085 -0.0000457 0.0000311 -0.0001488 0.0000032 -0.0001013 -0.0000040 -0.0001813 -0.0000047 -0.0000402 0.0000055 -0.0000617 0.0000293 -0.0000580 -0.0000006 -0.0000919 -0.0000020 -0.0001117 0.0000225 -0.0000714 -0.0000062 -0.0001020 0.0000119 -0.0000875 0.0000069 -0.0000668 0.0000179 -0.0000702 0.0000161 -0.0000020 0.0000174 -0.0000457 0.0000198 -0.0000934 0.0000311 -0.0000605 0.0000184 -0.0000314 0.0000048 -0.0000397 0.0000151 -0.0000358
0.0000426 -0.0000891 -0.0000077 -0.0000391 0.0000406 -0.0001545 -0.0000065 -0.0001080 -0.0000020 -0.0001928 -0.0000038 -0.0000470 0.0000054 -0.0000626 0.0000354 -0.0000598 0.0000005 -0.0000986 -0.0000020 -0.0001186 0.0000249 -0.0000718 -0.0000024 -0.0001097 0.0000145 -0.0000939 0.0000074 -0.0000710 0.0000196 -0.0000680 0.0000174 -0.0000004 0.0000190 -0.0000485 0.0000213 -0.0000992 0.0000335 -0.0000648 0.0000186 -0.0000325 0.0000050 -0.0000427 0.0000158 -0.0000388
0.0000132 -0.0000744 -0.0000087 -0.0000398 0.0000357 -0.0001542 -0.0000252 -0.0001052 -0.0000009 -0.0002060 -0.0000030 -0.0000515 0.0000062 -0.0000707 0.0000356 -0.0000584 -0.0000000 -0.0001056 -0.0000006 -0.0001320 0.0000281 -0.0000815 -0.0000013 -0.0001172 0.0000135 -0.0000995 0.0000072 -0.0000780 0.0000207 -0.0000759 0.0000208 -0.0000111 0.0000199 -0.0000560 0.0000201 -0.0001061 0.0000353 -0.0000734 0.0000193 -0.0000391 0.0000055 -0.0000517 0.0000168 -0.0000484
0.0000034 -0.0000730 -0.0000078 -0.0000496 0.0000405 -0.0001598 0.0000175 -0.0001525 -0.0000050 -0.0002146 -0.0000031 -0.0000507 0.0000077 -0.0000821 0.0000295 -0.0000506 0.0000003 -0.0001169 0.0000005 -0.0001487 0.0000327 -0.0000992 0.0000014 -0.0001304 0.0000146 -0.0001137 0.0000096 -0.0000896 0.0000225 -0.0000920 0.0000238 -0.0000247 0.0000212 -0.0000674 0.0000214 -0.0001199 0.0000357 -0.0000827 0.0000199 -0.0000510 0.0000073 -0.0000692 0.0000190 -0.0000657
-0.0000045 -0.0000540 -0.0000084 -0.0000684 0.0000418 -0.0001681 0.0000081 -0.0001419 -0.0000093 -0.0002308 -0.0000049 -0.0000558 0.0000088 -0.0000997 0.0000234 -0.0000480 0.0000016 -0.0001324 0.0000014 -0.0001705 0.0000371 -0.0001240 -0.0000006 -0.0001419 0.0000190 -0.0001352 0.0000108 -0.0001045 0.0000274 -0.0001223 0.0000268 -0.0000403 0.0000224 -0.0000832 0.0000253 -0.0001413 0.0000361 -0.0000957 0.0000203 -0.0000695 0.0000092 -0.0000921 0.0000209 -0.0000866
0.0000029 -0.0000582 -0.0000091 -0.0000835 0.0000508 -0.0001796 -0.0000026 -0.0001439 -0.0000081 -0.0002559 -0.0000053 -0.0000550 0.0000079 -0.0001099 0.0000223 -0.0000488 0.0000017 -0.0001425 0.0000019 -0.0001859 0.0000416 -0.0001360 -0.0000002 -0.0001498 0.0000226 -0.0001482 0.0000119 -0.0001123 0.0000301 -0.0001322 0.0000286 -0.0000375 0.0000242 -0.0000869 0.0000245 -0.0001487 0.0000369 -0.0000967 0.0000229 -0.0000698 0.0000105 -0.0000913 0.0000231 -0.0000875
0.0000054 -0.0000523 -0.0000090 -0.0000735 0.0000477 -0.0001807 -0.0000009 -0.0001326 -0.0000126 -0.0002567 -0.0000089 -0.0000490 0.0000099 -0.0001160 0.0000274 -0.0000535 0.0000028 -0.0001483 0.0000026 -0.0001929 0.0000448 -0.0001342 -0.0000004 -0.0001546 0.0000246 -0.0001547 0.0000124 -0.0001172 0.0000293 -0.0001295 0.0000303 -0.0000345 0.0000267 -0.0000870 0.0000242 -0.0001545 0.0000371 -0.0000946 0.0000242 -0.0000679 0.0000112 -0.0000880 0.0000245 -0.0000844
0.0000125 -0.0000416 -0.0000085 -0.0000660 0.0000423 -0.0001745 -0.0000036 -0.0001365 -0.0000080 -0.0002633 -0.0000095 -0.0000514 0.0000109 -0.0001207 0.0000317 -0.0000486 0.0000041 -0.0001543 0.0000023 -0.0001989 0.0000481 -0.0001357 0.0000002 -0.0001610 0.0000258 -0.0001610 0.0000119 -0.0001224 0.0000300 -0.0001334 0.0000329 -0.0000386 0.0000282 -0.0000910 0.0000250 -0.0001629 0.0000391 -0.0001005 0.0000237 -0.0000727 0.0000121 -0.0000971 0.0000256 -0.0000924
0.0000160 -0.0000400 -0.0000083 -0.0000726 0.0000569 -0.0001856 0.0000010 -0.0001561 -0.0000037 -0.0002759 -0.0000094 -0.0000506 0.0000136 -0.0001352 0.0000337 -0.0000452 0.0000037 -0.0001632 0.0000026 -0.0002128 0.0000526 -0.0001523 -0.0000004 -0.0001680 0.0000266 -0.0001735 0.0000116 -0.0001311 0.0000312 -0.0001521 0.0000352 -0.0000520 0.0000297 -0.0001015 0.0000269 -0.0001780 0.0000396 -0.0001096 0.0000246 -0.0000830 0.0000140 -0.0001140 0.0000269 -0.0001083
0.0000232 -0.0000423 -0.0000097 -0.0000852 0.0000578 -0.0001832 -0.0000177 -0.0001464 -0.0000014 -0.0002918 -0.0000085 -0.0000533 0.0000162 -0.0001537 0.0000392 -0.0000469 0.0000048 -0.0001764 0.0000029 -0.0002305 0.0000580 -0.0001755 -0.0000001 -0.0001765 0.0000309 -0.0001946 0.0000123 -0.0001431 0.0000341 -0.0001799 0.0000395 -0.0000726 0.0000311 -0.0001158 0.0000282 -0.0001954 0.0000418 -0.0001242 0.0000238 -0.0000993 0.0000159 -0.0001401 0.0000288 -0.0001303
0.0000192 -0.0000380 -0.0000131 -0.0001057 0.0000580 -0.0001888 -0.0000430 -0.0001344 0.0000000 -0.0003120 -0.0000080 -0.0000592 0.0000197 -0.0001772 0.0000280 -0.0000397 0.0000072 -0.0001912 0.0000041 -0.0002518 0.0000605 -0.0002011 -0.0000037 -0.0001859 0.0000337 -0.0002123 0.0000133 -0.0001541 0.0000353 -0.0001994 0.0000426 -0.0000821 0.0000340 -0.0001231 0.0000278 -0.0002062 0.0000413 -0.0001252 0.0000240 -0.0001022 0.0000170 -0.0001428 0.0000307 -0.0001338
0.0000268 -0.0000387 -0.0000140 -0.0000978 0.0000655 -0.0001930 -0.0000367 -0.0001393 -0.0000026 -0.0003150 -0.0000089 -0.0000544 0.0000204 -0.0001820 0.0000292 -0.0000396 0.0000076 -0.0001938 0.0000055 -0.0002581 0.0000614 -0.0001954 -0.0000032 -0.0001898 0.0000349 -0.0002176 0.0000159 -0.0001583 0.0000350 -0.0001955 0.0000417 -0.0000775 0.0000363 -0.0001195 0.0000278 -0.0002095 0.0000425 -0.0001223 0.0000240 -0.0000962 0.0000175 -0.0001377 0.0000314 -0.0001287
0.0000187 -0.0000112 -0.0000122 -0.0000895 0.0000736 -0.0001933 -0.0000323 -0.0001422 0.0000018 -0.0003176 -0.0000099 -0.0000483 0.0000190 -0.0001817 0.0000335 -0.0000294 0.0000078 -0.0001922 0.0000063 -0.0002582 0.0000636 -0.0001885 0.0000001 -0.0001919 0.0000376 -0.0002201 0.0000141 -0.0001552 0.0000347 -0.0001874 0.0000410 -0.0000728 0.0000378 -0.0001091 0.0000266 -0.0002065 0.0000439 -0.0001172 0.0000241 -0.0000902 0.0000182 -0.0001341 0.0000324 -0.0001242
0.0000252 0.0000020 -0.0000111 -0.0000838 0.0000720 -0.0001820 -0.0000308 -0.0001234 0.0000019 -0.0003145 -0.0000106 -0.0000462 0.0000203 -0.0001885 0.0000368 -0.0000194 0.0000093 -0.0001911 0.0000081 -0.0002612 0.0000672 -0.0001919 0.0000030 -0.0001978 0.0000378 -0.0002269 0.0000147 -0.0001605 0.0000367 -0.0001963 0.0000324 -0.0001122 0.0000428 -0.0001005 0.0000272 -0.0002131 0.0000464 -0.0001202 0.0000224 -0.0000917 0.0000189 -0.0001456 0.0000333 -0.0001341
0.0000168 0.0000079 -0.0000125 -0.0000872 0.0000564 -0.0001559 -0.0000455 -0.0001038 0.0000033 -0.0003191 -0.0000100 -0.0000399 0.0000213 -0.0001991 0.0000292 -0.0000014 0.0000142 -0.0001896 0.0000108 -0.0002649 0.0000719 -0.0002033 0.0000054 -0.0002031 0.0000396 -0.0002366 0.0000167 -0.0001694 0.0000361 -0.0002099 0.0000256 -0.0001546 0.0000470 -0.0000955 0.0000294 -0.0002179 0.0000483 -0.0001246 0.0000214 -0.0000985 0.0000194 -0.0001632 0.0000338 -0.0001472
0.0000203 0.0000086 -0.0000137 -0.0000963 0.0000545 -0.0001437 -0.0000098 -0.0001273 0.0000068 -0.0003233 -0.0000072 -0.0000345 0.0000230 -0.0002113 0.0000349 -0.0000080 0.0000169 -0.0001902 0.0000140 -0.0002720 0.0000759 -0.0002181 0.0000049 -0.0002055 0.0000403 -0.0002489 0.0000173 -0.0001790 0.0000381 -0.0002313 0.0000261 -0.0001842 0.0000497 -0.0000971 0.0000303 -0.0002256 0.0000500 -0.0001280 0.0000207 -0.0001083 0.0000197 -0.0001821 0.0000348 -0.0001611
0.0000170 0.0000226 -0.0000148 -0.0000976 0.0000530 -0.0001418 -0.0000234 -0.0001303 0.0000080 -0.0003251 -0.0000080 -0.0000179 0.0000229 -0.0002140 0.0000362 0.0000023 0.0000192 -0.0001852 0.0000168 -0.0002709 0.0000775 -0.0002121 0.0000049 -0.0002004 0.0000408 -0.0002479 0.0000190 -0.0001795 0.0000363 -0.0002270 0.0000257 -0.0001773 0.0000511 -0.0000846 0.0000303 -0.0002258 0.0000515 -0.0001194 0.0000208 -0.0000970 0.0000191 -0.0001761 0.0000352 -0.0001525
-0.0000102 0.0000613 -0.0000141 -0.0000791 0.0000429 -0.0001136 -0.0000100 -0.0001285 0.0000087 -0.0003130 -0.0000085 -0.0000069 0.0000227 -0.0002093 0.0000387 0.0000184 0.0000217 -0.0001748 0.0000197 -0.0002591 0.0000800 -0.0001984 0.0000039 -0.0001912 0.0000420 -0.0002416 0.0000179 -0.0001726 0.0000376 -0.0002186 0.0000274 -0.0001657 0.0000519 -0.0000687 0.0000296 -0.0002194 0.0000512 -0.0001065 0.0000197 -0.0000820 0.0000182 -0.0001642 0.0000343 -0.0001384
-0.0000179 0.0000917 -0.0000104 -0.0000565 0.0000382 -0.0000885 -0.0000230 -0.0001035 0.0000106 -0.0002912 -0.0000090 0.0000112 0.0000225 -0.0002007 0.0000355 0.0000353 0.0000244 -0.0001648 0.0000220 -0.0002435 0.0000820 -0.0001778 0.0000043 -0.0001779 0.0000430 -0.0002335 0.0000173 -0.0001645 0.0000335 -0.0002019 0.0000293 -0.0001574 0.0000531 -0.0000550 0.0000301 -0.0002109 0.0000526 -0.0000976 0.0000178 -0.0000747 0.0000174 -0.0001663 0.0000342 -0.0001364
-0.0000040 0.0001058 -0.0000102 -0.0000473 0.0000312 -0.0000684 -0.0000405 -0.0000773 0.0000154 -0.0002803 -0.0000073 0.0000222 0.0000240 -0.0002048 0.0000379 0.0000433 0.0000264 -0.0001606 0.0000252 -0.0002369 0.0000834 -0.0001760 0.0000052 -0.0001691 0.0000447 -0.0002328 0.0000168 -0.0001615 0.0000349 -0.0002048 0.0000307 -0.0001595 0.0000527 -0.0000486 0.0000277 -0.0002070 0.0000536 -0.0000952 0.0000159 -0.0000719 0.0000176 -0.0001774 0.0000332 -0.0001408
-0.0000054 0.0001125 -0.0000118 -0.0000443 0.0000304 -0.0000564 -0.0000274 -0.0000762 0.0000166 -0.0002716 -0.0000047 0.0000288 0.0000247 -0.0002098 0.0000368 0.0000569 0.0000280 -0.0001568 0.0000289 -0.0002344 0.0000862 -0.0001812 0.0000034 -0.0001601 0.0000453 -0.0002349 0.0000183 -0.0001635 0.0000353 -0.0002184 0.0000325 -0.0001641 0.0000524 -0.0000468 0.0000282 -0.0002086 0.0000541 -0.0000948 0.0000136 -0.0000763 0.0000178 -0.0001954 0.0000331 -0.0001531
-0.0000217 0.0001312 -0.0000137 -0.0000485 0.0000221 -0.0000399 -0.0000310 -0.0000396 0.0000167 -0.0002592 -0.0000014 0.0000358 0.0000264 -0.0002205 0.0000408 0.0000610 0.0000287 -0.0001544 0.0000314 -0.0002326 0.0000885 -0.0001911 0.0000029 -0.0001519 0.0000465 -0.0002364 0.0000207 -0.0001652 0.0000369 -0.0002338 0.0000356 -0.0001598 0.0000528 -0.0000386 0.0000281 -0.0002037 0.0000548 -0.0000873 0.0000127 -0.0000682 0.0000174 -0.0001928 0.0000331 -0.0001474
-0.0000080 0.0001452 -0.0000137 -0.0000293 0.0000218 -0.0000243 -0.0000667 0.0000149 0.0000200 -0.0002387 -0.0000011 0.0000471 0.0000246 -0.0002111 0.0000427 0.0000730 0.0000307 -0.0001425 0.0000336 -0.0002168 0.0000902 -0.0001733 0.0000043 -0.0001359 0.0000483 -0.0002256 0.0000245 -0.0001586 0.0000372 -0.0002250 0.0000328 -0.0001358 0.0000534 -0.0000204 0.0000284 -0.0001923 0.0000539 -0.0000697 0.0000116 -0.0000491 0.0000174 -0.0001815 0.0000324 -0.0001322
-0.0000241 0.0001693 -0.0000134 -0.0000048 0.0000247 -0.0000049 -0.0000494 0.0000248 0.0000240 -0.0002153 0.0000006 0.0000577 0.0000225 -0.0001983 0.0000543 0.0000797 0.0000312 -0.0001265 0.0000350 -0.0001972 0.0000898 -0.0001500 0.0000065 -0.0001187 0.0000528 -0.0002132 0.0000250 -0.0001455 0.0000362 -0.0002095 0.0000315 -0.0001146 0.0000522 0.0000007 0.0000305 -0.0001805 0.0000545 -0.0000555 0.0000083 -0.0000282 0.0000167 -0.0001706 0.0000309 -0.0001176
-0.0000289 0.0001880 -0.0000133 0.0000112 0.0000310 0.0000082 -0.0000591 0.0000516 0.0000298 -0.0001925 0.0000042 0.0000628 0.0000231 -0.0001940 0.0000640 0.0000838 0.0000324 -0.0001168 0.0000376 -0.0001845 0.0000906 -0.0001398 0.0000074 -0.0001051 0.0000549 -0.0002039 0.0000271 -0.0001391 0.0000343 -0.0002053 0.0000332 -0.0001119 0.0000503 0.0000107 0.0000310 -0.0001708 0.0000540 -0.0000477 0.0000043 -0.0000189 0.0000168 -0.0001766 0.0000295 -0.0001183
0.0000006 0.0001656 -0.0000161 0.0000169 0.0000287 0.0000202 -0.0000531 0.0000706 0.0000355 -0.0001730 0.0000089 0.0000648 0.0000237 -0.0001941 0.0000784 0.0000827 0.0000353 -0.0001127 0.0000405 -0.0001770 0.0000910 -0.0001403 0.0000087 -0.0000937 0.0000541 -0.0001958 0.0000303 -0.0001384 0.0000366 -0.0002150 0.0000356 -0.0001161 0.0000485 0.0000141 0.0000324 -0.0001685 0.0000541 -0.0000446 0.0000001 -0.0000150 0.0000170 -0.0001893 0.0000282 -0.0001255
-0.0000125 0.0001834 -0.0000163 0.0000107 0.0000329 0.0000223 -0.0000833 0.0001030 0.0000387 -0.0001630 0.0000105 0.0000676 0.0000229 -0.0001971 0.0000780 0.0000891 0.0000374 -0.0001122 0.0000435 -0.0001746 0.0000928 -0.0001502 0.0000081 -0.0000832 0.0000573 -0.0001991 0.0000311 -0.0001386 0.0000377 -0.0002313 0.0000375 -0.0001229 0.0000468 0.0000129 0.0000356 -0.0001677 0.0000549 -0.0000448 -0.0000044 -0.0000150 0.0000185 -0.0002093 0.0000276 -0.0001390
-0.0000059 0.0001848 -0.0000148 -0.0000020 0.0000450 0.0000239 -0.0000859 0.0001247 0.0000373 -0.0001540 0.0000092 0.0000763 0.0000210 -0.0002005 0.0000768 0.0000985 0.0000398 -0.0001084 0.0000467 -0.0001705 0.0000940 -0.0001542 0.0000080 -0.0000681 0.0000604 -0.0001948 0.0000364 -0.0001383 0.0000351 -0.0002285 0.0000405 -0.0001147 0.0000467 0.0000217 0.0000382 -0.0001604 0.0000564 -0.0000357 -0.0000077 0.0000006 0.0000185 -0.0002033 0.0000270 -0.0001300
-0.0000087 0.0002009 -0.0000157 0.0000171 0.0000401 0.0000407 -0.0000554 0.0001278 0.0000357 -0.0001302 0.0000104 0.0000863 0.0000202 -0.0001895 0.0000785 0.0001082 0.0000421 -0.0000978 0.0000494 -0.0001552 0.0000939 -0.0001322 0.0000104 -0.0000516 0.0000620 -0.0001790 0.0000388 -0.0001299 0.0000350 -0.0002128 0.0000401 -0.0000939 0.0000461 0.0000373 0.0000383 -0.0001455 0.0000579 -0.0000237 -0.0000122 0.0000230 0.0000182 -0.0001919 0.0000264 -0.0001153
0.0000124 0.0001916 -0.0000163 0.0000370 0.0000346 0.0000563 -0.0000712 0.0001546 0.0000364 -0.0001008 0.0000111 0.0000933 0.0000192 -0.0001774 0.0000746 0.0001191 0.0000427 -0.0000862 0.0000522 -0.0001399 0.0000964 -0.0001167 0.0000114 -0.0000385 0.0000639 -0.0001666 0.0000406 -0.0001231 0.0000349 -0.0002009 0.0000404 -0.0000859 0.0000458 0.0000464 0.0000400 -0.0001357 0.0000549 -0.0000098 -0.0000161 0.0000344 0.0000183 -0.0001931 0.0000264 -0.0001140
0.0000070 0.0001951 -0.0000148 0.0000402 0.0000451 0.0000573 -0.0000363 0.0001444 0.0000375 -0.0000821 0.0000113 0.0000990 0.0000183 -0.0001747 0.0000921 0.0001108 0.0000450 -0.0000835 0.0000544 -0.0001314 0.0000987 -0.0001160 0.0000155 -0.0000295 0.0000656 -0.0001622 0.0000445 -0.0001226 0.0000357 -0.0002046 0.0000406 -0.0000850 0.0000449 0.0000487 0.0000409 -0.0001279 0.0000543 -0.0000056 -0.0000203 0.0000417 0.0000195 -0.0002037 0.0000266 -0.0001196
0.0000050 0.0001937 -0.0000135 0.0000369 0.0000439 0.0000662 -0.0000152 0.0001519 0.0000400 -0.0000692 0.0000140 0.0000992 0.0000185 -0.0001789 0.0000896 0.0001178 0.0000479 -0.0000844 0.0000570 -0.0001281 0.0001019 -0.0001236 0.0000191 -0.0000228 0.0000677 -0.0001632 0.0000476 -0.0001283 0.0000382 -0.0002157 0.0000442 -0.0000913 0.0000450 0.0000449 0.0000441 -0.0001290 0.0000533 -0.0000040 -0.0000239 0.0000429 0.0000214 -0.0002205 0.0000281 -0.0001323
0.0000196 0.0001655 -0.0000150 0.0000295 0.0000404 0.0000731 -0.0000129 0.0001462 0.0000411 -0.0000635 0.0000153 0.0000995 0.0000198 -0.0001858 0.0000889 0.0001116 0.0000518 -0.0000906 0.0000599 -0.0001307 0.0001043 -0.0001376 0.0000200 -0.0000183 0.0000688 -0.0001658 0.0000520 -0.0001355 0.0000370 -0.0002293 0.0000459 -0.0000994 0.0000459 0.0000373 0.0000456 -0.0001333 0.0000533 -0.0000076 -0.0000284 0.0000468 0.0000230 -0.0002320 0.0000291 -0.0001399
-0.0000155 0.0001847 -0.0000140 0.0000293 0.0000378 0.0000784 -0.0000641 0.0001906 0.0000452 -0.0000537 0.0000157 0.0001050 0.0000179 -0.0001808 0.0000925 0.0001137 0.0000546 -0.0000862 0.0000624 -0.0001218 0.0001038 -0.0001280 0.0000183 -0.0000053 0.0000716 -0.0001569 0.0000525 -0.0001298 0.0000367 -0.0002192 0.0000489 -0.0000894 0.0000464 0.0000448 0.0000472 -0.0001271 0.0000525 0.0000013 -0.0000326 0.0000641 0.0000235 -0.0002229 0.0000294 -0.0001281
-0.0000208 0.0002079 -0.0000139 0.0000452 0.0000376 0.0000864 -0.0001136 0.0002196 0.0000486 -0.0000357 0.0000137 0.0001118 0.0000168 -0.0001711 0.0000946 0.0001208 0.0000570 -0.0000810 0.0000657 -0.0001101 0.0001036 -0.0001102 0.0000196 0.0000074 0.0000733 -0.0001455 0.0000555 -0.0001241 0.0000335 -0.0001979 0.0000487 -0.0000755 0.0000469 0.0000561 0.0000467 -0.0001161 0.0000524 0.0000119 -0.0000369 0.0000828 0.0000251 -0.0002131 0.0000303 -0.0001166
-0.0000229 0.0002241 -0.0000129 0.0000554 0.0000356 0.0000937 -0.0001641 0.0002807 0.0000498 -0.0000180 0.0000142 0.0001147 0.0000174 -0.0001667 0.0001038 0.0001182 0.0000592 -0.0000803 0.0000689 -0.0001038 0.0001055 -0.0001061 0.0000217 0.0000151 0.0000766 -0.0001408 0.0000579 -0.0001235 0.0000303 -0.0001902 0.0000509 -0.0000785 0.0000476 0.0000555 0.0000489 -0.0001102 0.0000521 0.0000120 -0.0000418 0.0000893 0.0000271 -0.0002201 0.0000304 -0.0001192
-0.0000131 0.0002106 -0.0000156 0.0000550 0.0000434 0.0000892 -0.0001588 0.0002945 0.0000506 -0.0000077 0.0000157 0.0001118 0.0000172 -0.0001691 0.0001054 0.0001128 0.0000615 -0.0000833 0.0000696 -0.0001004 0.0001082 -0.0001163 0.0000206 0.0000203 0.0000783 -0.0001432 0.0000602 -0.0001261 0.0000312 -0.0001971 0.0000542 -0.0000920 0.0000485 0.0000482 0.0000521 -0.0001149 0.0000527 0.0000046 -0.0000468 0.0000905 0.0000284 -0.0002334 0.0000309 -0.0001291
0.0000182 0.0001663 -0.0000161 0.0000417 0.0000524 0.0000801 -0.0001301 0.0002760 0.0000537 -0.0000046 0.0000185 0.0001076 0.0000174 -0.0001762 0.0001158 0.0000972 0.0000632 -0.0000904 0.0000716 -0.0001041 0.0001094 -0.0001316 0.0000232 0.0000177 0.0000788 -0.0001481 0.0000668 -0.0001366 0.0000320 -0.0002128 0.0000558 -0.0001079 0.0000485 0.0000362 0.0000536 -0.0001192 0.0000541 -0.0000073 -0.0000527 0.0000859 0.0000311 -0.0002546 0.0000320 -0.0001454
0.0000246 0.0001651 -0.0000198 0.0000238 0.0000492 0.0000766 -0.0001054 0.0002438 0.0000600 -0.0000144 0.0000206 0.0001035 0.0000163 -0.0001857 0.0001151 0.0000916 0.0000649 -0.0000977 0.0000725 -0.0001077 0.0001108 -0.0001505 0.0000242 0.0000177 0.0000810 -0.0001515 0.0000709 -0.0001407 0.0000322 -0.0002226 0.0000561 -0.0001097 0.0000497 0.0000303 0.0000536 -0.0001171 0.0000556 -0.0000120 -0.0000583 0.0000980 0.0000325 -0.0002503 0.0000327 -0.0001409
0.0000183 0.0001682 -0.0000180 0.0000272 0.0000479 0.0000809 -0.0000769 0.0002263 0.0000613 0.0000020 0.0000195 0.0001075 0.0000161 -0.0001797 0.0001186 0.0000906 0.0000668 -0.0000970 0.0000739 -0.0000986 0.0001117 -0.0001424 0.0000283 0.0000188 0.0000825 -0.0001450 0.0000741 -0.0001382 0.0000290 -0.0002078 0.0000554 -0.0001019 0.0000509 0.0000347 0.0000582 -0.0001114 0.0000565 -0.0000081 -0.0000633 0.0001140 0.0000340 -0.0002395 0.0000330 -0.0001289
0.0000005 0.0001943 -0.0000177 0.0000377 0.0000491 0.0000904 -0.0000496 0.0002158 0.0000678 0.0000156 0.0000191 0.0001128 0.0000146 -0.0001692 0.0001241 0.0000891 0.0000685 -0.0000936 0.0000749 -0.0000856 0.0001109 -0.0001292 0.0000302 0.0000262 0.0000822 -0.0001307 0.0000772 -0.0001353 0.0000267 -0.0001871 0.0000587 -0.0000990 0.0000514 0.0000389 0.0000593 -0.0001027 0.0000551 -0.0000046 -0.0000694 0.0001291 0.0000346 -0.0002353 0.0000321 -0.0001221
0.0000074 0.0001719 -0.0000160 0.0000333 0.0000529 0.0000926 -0.0000398 0.0002005 0.0000727 0.0000226 0.0000227 0.0001078 0.0000140 -0.0001672 0.0001252 0.0000873 0.0000713 -0.0000985 0.0000774 -0.0000832 0.0001113 -0.0001334 0.0000323 0.0000262 0.0000806 -0.0001268 0.0000797 -0.0001374 0.0000244 -0.0001865 0.0000567 -0.0001059 0.0000515 0.0000318 0.0000605 -0.0001014 0.0000561 -0.0000113 -0.0000747 0.0001316 0.0000358 -0.0002443 0.0000311 -0.0001272
-0.0000055 0.0001765 -0.0000187 0.0000237 0.0000596 0.0000878 -0.0000404 0.0002033 0.0000756 0.0000239 0.0000240 0.0001042 0.0000161 -0.0001740 0.0001326 0.0000769 0.0000731 -0.0001053 0.0000795 -0.0000838 0.0001118 -0.0001468 0.0000331 0.0000235 0.0000821 -0.0001293 0.0000819 -0.0001443 0.0000230 -0.0001956 0.0000602 -0.0001241 0.0000510 0.0000191 0.0000615 -0.0001019 0.0000576 -0.0000240 -0.0000810 0.0001286 0.0000373 -0.0002604 0.0000301 -0.0001385
0.0000196 0.0001575 -0.0000221 0.0000055 0.0000601 0.0000826 -0.0000508 0.0002031 0.0000749 0.0000275 0.0000243 0.0000983 0.0000178 -0.0001836 0.0001275 0.0000692 0.0000759 -0.0001167 0.0000804 -0.0000897 0.0001150 -0.0001686 0.0000333 0.0000183 0.0000811 -0.0001346 0.0000844 -0.0001549 0.0000224 -0.0002092 0.0000630 -0.0001430 0.0000514 0.0000030 0.0000625 -0.0001052 0.0000584 -0.0000346 -0.0000850 0.0001242 0.0000390 -0.0002726 0.0000297 -0.0001465
0.0000263 0.0001477 -0.0000228 -0.0000009 0.0000539 0.0000868 -0.0000725 0.0002171 0.0000772 0.0000333 0.0000222 0.0001019 0.0000160 -0.0001794 0.0001237 0.0000705 0.0000776 -0.0001177 0.0000795 -0.0000812 0.0001146 -0.0001672 0.0000331 0.0000234 0.0000822 -0.0001276 0.0000844 -0.0001534 0.0000187 -0.0002009 0.0000623 -0.0001368 0.0000530 0.0000027 0.0000646 -0.0000994 0.0000595 -0.0000332 -0.0000886 0.0001384 0.0000397 -0.0002630 0.0000292 -0.0001357
0.0000046 0.0001773 -0.0000229 0.0000086 0.0000458 0.0001042 -0.0000780 0.0002267 0.0000756 0.0000510 0.0000211 0.0001062 0.0000145 -0.0001703 0.0001140 0.0000836 0.0000783 -0.0001122 0.0000800 -0.0000678 0.0001142 -0.0001556 0.0000328 0.0000310 0.0000842 -0.0001177 0.0000870 -0.0001498 0.0000139 -0.0001795 0.0000625 -0.0001321 0.0000535 0.0000090 0.0000667 -0.0000872 0.0000592 -0.0000277 -0.0000932 0.0001566 0.0000395 -0.0002478 0.0000277 -0.0001195
0.0000064 0.0001810 -0.0000239 0.0000231 0.0000493 0.0001207 -0.0000229 0.0001786 0.0000785 0.0000718 0.0000214 0.0001068 0.0000146 -0.0001623 0.0001220 0.0000835 0.0000784 -0.0001059 0.0000797 -0.0000541 0.0001145 -0.0001457 0.0000342 0.0000358 0.0000857 -0.0001102 0.0000896 -0.0001488 0.0000127 -0.0001699 0.0000624 -0.0001374 0.0000532 0.0000074 0.0000646 -0.0000761 0.0000599 -0.0000310 -0.0000975 0.0001617 0.0000400 -0.0002517 0.0000252 -0.0001185
-0.0000090 0.0001947 -0.0000252 0.0000151 0.0000490 0.0001290 -0.0000142 0.0001648 0.0000821 0.0000876 0.0000253 0.0001043 0.0000142 -0.0001655 0.0001147 0.0000897 0.0000792 -0.0001076 0.0000791 -0.0000470 0.0001144 -0.0001534 0.0000332 0.0000386 0.0000858 -0.0001092 0.0000906 -0.0001516 0.0000131 -0.0001780 0.0000633 -0.0001521 0.0000525 -0.0000025 0.0000661 -0.0000720 0.0000583 -0.0000349 -0.0001015 0.0001616 0.0000413 -0.0002646 0.0000231 -0.0001261
-0.0000070 0.0001891 -0.0000268 0.0000020 0.0000527 0.0001357 -0.0000298 0.0001880 0.0000875 0.0000936 0.0000248 0.0001023 0.0000142 -0.0001728 0.0001169 0.0000884 0.0000798 -0.0001100 0.0000796 -0.0000459 0.0001164 -0.0001728 0.0000320 0.0000413 0.0000859 -0.0001131 0.0000933 -0.0001601 0.0000104 -0.0001903 0.0000657 -0.0001728 0.0000518 -0.0000163 0.0000685 -0.0000728 0.0000595 -0.0000447 -0.0001040 0.0001539 0.0000426 -0.0002838 0.0000214 -0.0001402
-0.0000243 0.0002093 -0.0000268 -0.0000179 0.0000586 0.0001364 -0.0000278 0.0002020 0.0000893 0.0000989 0.0000266 0.0001029 0.0000135 -0.0001806 0.0001155 0.0000912 0.0000811 -0.0001110 0.0000800 -0.0000428 0.0001154 -0.0001836 0.0000343 0.0000458 0.0000843 -0.0001088 0.0000972 -0.0001659 0.0000065 -0.0001901 0.0000651 -0.0001731 0.0000522 -0.0000198 0.0000690 -0.0000634 0.0000614 -0.0000469 -0.0001067 0.0001630 0.0000437 -0.0002798 0.0000201 -0.0001339
-0.0000110 0.0002177 -0.0000292 -0.0000075 0.0000457 0.0001579 -0.0000304 0.0002303 0.0000893 0.0001214 0.0000253 0.0001104 0.0000139 -0.0001745 0.0001118 0.0001010 0.0000814 -0.0001022 0.0000809 -0.0000282 0.0001157 -0.0001734 0.0000355 0.0000537 0.0000832 -0.0000942 0.0000961 -0.0001574 0.0000029 -0.0001754 0.0000673 -0.0001697 0.0000531 -0.0000155 0.0000708 -0.0000522 0.0000636 -0.0000415 -0.0001101 0.0001776 0.0000435 -0.0002687 0.0000177 -0.0001221
-0.0000356 0.0002596 -0.0000305 0.0000050 0.0000460 0.0001791 -0.0000211 0.0002323 0.0000938 0.0001420 0.0000233 0.0001205 0.0000133 -0.0001647 0.0001121 0.0001161 0.0000807 -0.0000888 0.0000814 -0.0000079 0.0001136 -0.0001567 0.0000301 0.0000700 0.0000837 -0.0000783 0.0000949 -0.0001440 0.0000019 -0.0001596 0.0000652 -0.0001579 0.0000536 -0.0000071 0.0000711 -0.0000318 0.0000661 -0.0000354 -0.0001129 0.0001951 0.0000425 -0.0002519 0.0000144 -0.0001047
-0.0000279 0.0002702 -0.0000341 0.0000264 0.0000383 0.0002092 -0.0000696 0.0002941 0.0000981 0.0001747 0.0000214 0.0001292 0.0000119 -0.0001530 0.0001103 0.0001300 0.0000802 -0.0000745 0.0000816 0.0000142 0.0001133 -0.0001394 0.0000285 0.0000815 0.0000829 -0.0000651 0.0000960 -0.0001383 0.0000005 -0.0001498 0.0000639 -0.0001599 0.0000520 -0.0000066 0.0000735 -0.0000185 0.0000675 -0.0000343 -0.0001169 0.0001985 0.0000422 -0.0002570 0.0000116 -0.0001081
-0.0000053 0.0002834 -0.0000385 0.0000275 0.0000405 0.0002293 -0.0000628 0.0003079 0.0000999 0.0001957 0.0000219 0.0001302 0.0000127 -0.0001564 0.0001204 0.0001297 0.0000796 -0.0000693 0.0000819 0.0000246 0.0001146 -0.0001492 0.0000292 0.0000845 0.0000823 -0.0000621 0.0000973 -0.0001403 -0.0000035 -0.0001569 0.0000639 -0.0001737 0.0000517 -0.0000181 0.0000748 -0.0000082 0.0000682 -0.0000389 -0.0001187 0.0001903 0.0000435 -0.0002741 0.0000097 -0.0001231
-0.0000257 0.0003049 -0.0000393 0.0000140 0.0000426 0.0002398 -0.0000404 0.0003092 0.0000998 0.0002162 0.0000242 0.0001296 0.0000138 -0.0001641 0.0001235 0.0001316 0.0000791 -0.0000668 0.0000822 0.0000307 0.0001151 -0.0001651 0.0000281 0.0000865 0.0000819 -0.0000652 0.0001013 -0.0001492 -0.0000037 -0.0001757 0.0000652 -0.0001915 0.0000517 -0.0000356 0.0000751 -0.0000004 0.0000711 -0.0000509 -0.0001222 0.0001803 0.0000442 -0.0002940 0.0000082 -0.0001419
-0.0000299 0.0003265 -0.0000421 0.0000079 0.0000525 0.0002504 -0.0000103 0.0002891 0.0001015 0.0002323 0.0000243 0.0001354 0.0000107 -0.0001641 0.0001171 0.0001474 0.0000799 -0.0000591 0.0000817 0.0000464 0.0001142 -0.0001633 0.0000252 0.0000964 0.0000811 -0.0000577 0.0001039 -0.0001495 -0.0000067 -0.0001755 0.0000651 -0.0001887 0.0000525 -0.0000369 0.0000760 0.0000160 0.0000746 -0.0000505 -0.0001244 0.0001882 0.0000439 -0.0002893 0.0000072 -0.0001389
-0.0000234 0.0003531 -0.0000429 0.0000217 0.0000569 0.0002686 -0.0000212 0.0003007 0.0001047 0.0002603 0.0000249 0.0001443 0.0000102 -0.0001572 0.0001209 0.0001536 0.0000796 -0.0000450 0.0000825 0.0000668 0.0001127 -0.0001469 0.0000254 0.0001071 0.0000806 -0.0000425 0.0001042 -0.0001422 -0.0000111 -0.0001595 0.0000630 -0.0001813 0.0000527 -0.0000327 0.0000741 0.0000435 0.0000769 -0.0000420 -0.0001269 0.0001999 0.0000442 -0.0002800 0.0000052 -0.0001298
-0.0000318 0.0003897 -0.0000428 0.0000392 0.0000638 0.0002876 -0.0000622 0.0003563 0.0001064 0.0002954 0.0000211 0.0001558 0.0000076 -0.0001438 0.0001187 0.0001796 0.0000796 -0.0000274 0.0000828 0.0000934 0.0001126 -0.0001276 0.0000205 0.0001273 0.0000815 -0.0000263 0.0001039 -0.0001312 -0.0000171 -0.0001393 0.0000620 -0.0001690 0.0000541 -0.0000254 0.0000723 0.0000718 0.0000784 -0.0000306 -0.0001293 0.0002143 0.0000430 -0.0002646 0.0000034 -0.0001190
-0.0000211 0.0004059 -0.0000432 0.0000623 0.0000637 0.0003158 -0.0001090 0.0004227 0.0001047 0.0003393 0.0000198 0.0001676 0.0000071 -0.0001320 0.0001243 0.0001950 0.0000796 -0.0000090 0.0000843 0.0001205 0.0001100 -0.0001039 0.0000186 0.0001414 0.0000801 -0.0000092 0.0001035 -0.0001230 -0.0000222 -0.0001212 0.0000626 -0.0001668 0.0000536 -0.0000210 0.0000744 0.0000921 0.0000797 -0.0000242 -0.0001311 0.0002170 0.0000429 -0.0002669 0.0000018 -0.0001233
-0.0000090 0.0004196 -0.0000445 0.0000655 0.0000739 0.0003266 -0.0001239 0.0004645 0.0001045 0.0003674 0.0000205 0.0001704 0.0000049 -0.0001316 0.0001222 0.0002103 0.0000791 0.0000022 0.0000838 0.0001389 0.0001109 -0.0001064 0.0000188 0.0001515 0.0000785 -0.0000014 0.0001034 -0.0001237 -0.0000238 -0.0001288 0.0000637 -0.0001755 0.0000531 -0.0000298 0.0000718 0.0001093 0.0000815 -0.0000268 -0.0001331 0.0002101 0.0000430 -0.0002817 0.0000002 -0.0001398
-0.0000005 0.0004262 -0.0000453 0.0000568 0.0000732 0.0003445 -0.0001343 0.0004778 0.0001025 0.0003951 0.0000228 0.0001684 0.0000061 -0.0001404 0.0001229 0.0002170 0.0000790 0.0000082 0.0000848 0.0001516 0.0001122 -0.0001159 0.0000191 0.0001540 0.0000773 -0.0000002 0.0001033 -0.0001257 -0.0000269 -0.0001427 0.0000636 -0.0001833 0.0000523 -0.0000394 0.0000710 0.0001246 0.0000844 -0.0000277 -0.0001346 0.0002051 0.0000437 -0.0002861 -0.0000013 -0.0001470
0.0000216 0.0004319 -0.0000487 0.0000704 0.0000546 0.0003786 -0.0001237 0.0004866 0.0000993 0.0004327 0.0000177 0.0001807 0.0000031 -0.0001340 0.0001314 0.0002253 0.0000785 0.0000235 0.0000859 0.0001745 0.0001125 -0.0001039 0.0000165 0.0001655 0.0000804 0.0000107 0.0001033 -0.0001200 -0.0000299 -0.0001313 0.0000658 -0.0001765 0.0000536 -0.0000386 0.0000745 0.0001432 0.0000859 -0.0000199 -0.0001362 0.0002119 0.0000429 -0.0002765 -0.0000027 -0.0001426
0.0000328 0.0004518 -0.0000490 0.0000873 0.0000498 0.0004105 -0.0001071 0.0004920 0.0000977 0.0004699 0.0000171 0.0001877 0.0000020 -0.0001258 0.0001394 0.0002326 0.0000778 0.0000426 0.0000869 0.0002020 0.0001126 -0.0000858 0.0000169 0.0001779 0.0000799 0.0000277 0.0001034 -0.0001098 -0.0000352 -0.0001123 0.0000672 -0.0001660 0.0000542 -0.0000332 0.0000741 0.0001673 0.0000874 -0.0000094 -0.0001369 0.0002215 0.0000415 -0.0002596 -0.0000038 -0.0001347
0.0000395 0.0004796 -0.0000492 0.0001119 0.0000475 0.0004499 -0.0001073 0.0005240 0.0001000 0.0005082 0.0000152 0.0001989 -0.0000025 -0.0001106 0.0001406 0.0002592 0.0000768 0.0000645 0.0000887 0.0002333 0.0001103 -0.0000593 0.0000156 0.0001984 0.0000765 0.0000511 0.0001042 -0.0000981 -0.0000393 -0.0000930 0.0000647 -0.0001505 0.0000545 -0.0000257 0.0000749 0.0001928 0.0000900 0.0000039 -0.0001391 0.0002336 0.0000397 -0.0002429 -0.0000060 -0.0001245
0.0000410 0.0005190 -0.0000482 0.0001333 0.0000561 0.0004669 -0.0000930 0.0005411 0.0000997 0.0005547 0.0000148 0.0002092 -0.0000053 -0.0000969 0.0001317 0.0002961 0.0000760 0.0000864 0.0000914 0.0002657 0.0001088 -0.0000323 0.0000152 0.0002160 0.0000735 0.0000745 0.0001060 -0.0000881 -0.0000453 -0.0000683 0.0000663 -0.0001420 0.0000543 -0.0000181 0.0000741 0.0002224 0.0000919 0.0000162 -0.0001416 0.0002437 0.0000385 -0.0002295 -0.0000084 -0.0001172
0.0000386 0.0005456 -0.0000477 0.0001480 0.0000671 0.0004816 -0.0000873 0.0005646 0.0001002 0.0005908 0.0000156 0.0002113 -0.0000044 -0.0000960 0.0001363 0.0003089 0.0000748 0.0001001 0.0000919 0.0002908 0.0001104 -0.0000284 0.0000160 0.0002248 0.0000717 0.0000862 0.0001038 -0.0000840 -0.0000461 -0.0000754 0.0000640 -0.0001434 0.0000545 -0.0000268 0.0000735 0.0002412 0.0000935 0.0000164 -0.0001429 0.0002344 0.0000386 -0.0002405 -0.0000095 -0.0001326
0.0000382 0.0005608 -0.0000492 0.0001476 0.0000647 0.0004949 -0.0001179 0.0006004 0.0001003 0.0006212 0.0000140 0.0002192 -0.0000075 -0.0000942 0.0001312 0.0003265 0.0000749 0.0001128 0.0000931 0.0003128 0.0001098 -0.0000252 0.0000158 0.0002349 0.0000707 0.0000992 0.0001025 -0.0000760 -0.0000494 -0.0000712 0.0000651 -0.0001370 0.0000545 -0.0000271 0.0000746 0.0002616 0.0000969 0.0000227 -0.0001445 0.0002395 0.0000374 -0.0002299 -0.0000103 -0.0001309
0.0000448 0.0005645 -0.0000504 0.0001711 0.0000504 0.0005274 -0.0001117 0.0006285 0.0000968 0.0006615 0.0000123 0.0002275 -0.0000096 -0.0000819 0.0001403 0.0003401 0.0000739 0.0001315 0.0000960 0.0003411 0.0001087 -0.0000049 0.0000170 0.0002470 0.0000668 0.0001226 0.0001011 -0.0000635 -0.0000550 -0.0000549 0.0000625 -0.0001218 0.0000546 -0.0000218 0.0000753 0.0002852 0.0001008 0.0000308 -0.0001454 0.0002464 0.0000353 -0.0002145 -0.0000118 -0.0001246
0.0000555 0.0005875 -0.0000507 0.0001933 0.0000432 0.0005516 -0.0001030 0.0006343 0.0000939 0.0007062 0.0000120 0.0002364 -0.0000126 -0.0000687 0.0001413 0.0003594 0.0000724 0.0001527 0.0000961 0.0003756 0.0001058 0.0000227 0.0000162 0.0002623 0.0000640 0.0001472 0.0000999 -0.0000495 -0.0000600 -0.0000358 0.0000630 -0.0001103 0.0000551 -0.0000139 0.0000750 0.0003136 0.0001019 0.0000443 -0.0001466 0.0002572 0.0000333 -0.0001951 -0.0000138 -0.0001124
0.0000509 0.0006236 -0.0000504 0.0002204 0.0000408 0.0005760 -0.0001061 0.0006683 0.0000960 0.0007498 0.0000095 0.0002469 -0.0000146 -0.0000540 0.0001397 0.0003828 0.0000714 0.0001753 0.0000974 0.0004107 0.0001055 0.0000483 0.0000149 0.0002809 0.0000625 0.0001724 0.0000959 -0.0000306 -0.0000649 -0.0000178 0.0000626 -0.0000972 0.0000536 -0.0000050 0.0000746 0.0003419 0.0001032 0.0000589 -0.0001468 0.0002670 0.0000300 -0.0001745 -0.0000155 -0.0001028
0.0000632 0.0006470 -0.0000498 0.0002449 0.0000374 0.0006047 -0.0000783 0.0006692 0.0000983 0.0007935 0.0000080 0.0002556 -0.0000184 -0.0000391 0.0001401 0.0004019 0.0000697 0.0001981 0.0000982 0.0004463 0.0001028 0.0000769 0.0000122 0.0003016 0.0000609 0.0001957 0.0000952 -0.0000164 -0.0000692 0.0000037 0.0000599 -0.0000823 0.0000531 0.0000010 0.0000737 0.0003703 0.0001028 0.0000702 -0.0001482 0.0002744 0.0000273 -0.0001635 -0.0000177 -0.0000994
0.0000821 0.0006565 -0.0000515 0.0002581 0.0000389 0.0006158 -0.0001075 0.0007146 0.0000964 0.0008362 0.0000102 0.0002543 -0.0000214 -0.0000346 0.0001510 0.0004087 0.0000685 0.0002116 0.0000987 0.0004700 0.0001029 0.0000829 0.0000171 0.0003104 0.0000579 0.0002113 0.0000926 -0.0000103 -0.0000743 0.0000024 0.0000583 -0.0000869 0.0000515 -0.0000068 0.0000728 0.0003875 0.0001032 0.0000706 -0.0001491 0.0002653 0.0000258 -0.0001724 -0.0000196 -0.0001136
0.0000599 0.0006963 -0.0000516 0.0002547 0.0000330 0.0006306 -0.0000763 0.0006993 0.0000921 0.0008666 0.0000112 0.0002552 -0.0000227 -0.0000357 0.0001485 0.0004199 0.0000676 0.0002221 0.0001005 0.0004896 0.0001021 0.0000824 0.0000182 0.0003224 0.0000552 0.0002278 0.0000896 0.0000005 -0.0000786 0.0000027 0.0000571 -0.0000794 0.0000514 -0.0000095 0.0000733 0.0004051 0.0001022 0.0000790 -0.0001501 0.0002689 0.0000236 -0.0001606 -0.0000213 -0.0001099
0.0000570 0.0007253 -0.0000509 0.0002712 0.0000295 0.0006441 -0.0000581 0.0007223 0.0000885 0.0009094 0.0000089 0.0002644 -0.0000249 -0.0000226 0.0001393 0.0004414 0.0000669 0.0002397 0.0001005 0.0005195 0.0001013 0.0001058 0.0000154 0.0003433 0.0000548 0.0002488 0.0000878 0.0000166 -0.0000814 0.0000190 0.0000549 -0.0000627 0.0000522 -0.0000046 0.0000733 0.0004283 0.0001033 0.0000907 -0.0001516 0.0002800 0.0000203 -0.0001389 -0.0000236 -0.0000965
0.0000783 0.0007391 -0.0000526 0.0002957 0.0000256 0.0006569 -0.0000375 0.0007293 0.0000881 0.0009534 0.0000070 0.0002752 -0.0000288 -0.0000040 0.0001367 0.0004543 0.0000659 0.0002613 0.0001018 0.0005519 0.0000999 0.0001347 0.0000136 0.0003624 0.0000527 0.0002764 0.0000840 0.0000375 -0.0000865 0.0000420 0.0000537 -0.0000455 0.0000516 0.0000052 0.0000723 0.0004535 0.0001033 0.0001061 -0.0001512 0.0002932 0.0000169 -0.0001116 -0.0000261 -0.0000787
0.0000819 0.0007507 -0.0000511 0.0003221 0.0000213 0.0006709 -0.0000404 0.0007561 0.0000845 0.0010035 0.0000037 0.0002870 -0.0000335 0.0000195 0.0001324 0.0004752 0.0000636 0.0002849 0.0001052 0.0005839 0.0000967 0.0001701 0.0000138 0.0003835 0.0000498 0.0003080 0.0000807 0.0000597 -0.0000902 0.0000718 0.0000523 -0.0000290 0.0000502 0.0000161 0.0000707 0.0004806 0.0001021 0.0001239 -0.0001509 0.0003080 0.0000135 -0.0000834 -0.0000298 -0.0000600
0.0000979 0.0007567 -0.0000488 0.0003484 0.0000029 0.0006925 -0.0000442 0.0007913 0.0000822 0.0010522 0.0000003 0.0002975 -0.0000384 0.0000433 0.0001333 0.0004949 0.0000610 0.0003075 0.0001040 0.0006193 0.0000951 0.0002023 0.0000108 0.0004044 0.0000479 0.0003329 0.0000769 0.0000794 -0.0000944 0.0000951 0.0000519 -0.0000218 0.0000478 0.0000191 0.0000735 0.0004957 0.0001010 0.0001305 -0.0001516 0.0003097 0.0000107 -0.0000771 -0.0000331 -0.0000603
0.0000730 0.0007990 -0.0000510 0.0003524 -0.0000107 0.0007057 -0.0000326 0.0007972 0.0000784 0.0010873 0.0000029 0.0002966 -0.0000397 0.0000484 0.0001316 0.0005026 0.0000584 0.0003192 0.0001043 0.0006389 0.0000947 0.0002055 0.0000115 0.0004152 0.0000430 0.0003492 0.0000726 0.0000900 -0.0000950 0.0000920 0.0000506 -0.0000279 0.0000455 0.0000075 0.0000770 0.0005005 0.0000998 0.0001278 -0.0001532 0.0003009 0.0000085 -0.0000824 -0.0000359 -0.0000716
0.0000679 0.0008133 -0.0000525 0.0003450 -0.0000119 0.0007036 0.0000164 0.0007683 0.0000781 0.0011092 0.0000047 0.0002918 -0.0000427 0.0000514 0.0001251 0.0005102 0.0000578 0.0003242 0.0001036 0.0006526 0.0000957 0.0001988 0.0000116 0.0004229 0.0000416 0.0003574 0.0000713 0.0000960 -0.0000967 0.0000824 0.0000505 -0.0000306 0.0000440 -0.0000045 0.0000766 0.0005082 0.0000999 0.0001261 -0.0001542 0.0002982 0.0000062 -0.0000736 -0.0000392 -0.0000710
0.0000529 0.0008262 -0.0000559 0.0003559 -0.0000207 0.0007118 0.0000337 0.0007608 0.0000782 0.0011374 0.0000036 0.0002970 -0.0000467 0.0000663 0.0001292 0.0005128 0.0000570 0.0003358 0.0001052 0.0006732 0.0000923 0.0002187 0.0000092 0.0004377 0.0000393 0.0003770 0.0000680 0.0001114 -0.0001018 0.0001008 0.0000503 -0.0000181 0.0000437 -0.0000076 0.0000786 0.0005210 0.0001007 0.0001314 -0.0001540 0.0003043 0.0000022 -0.0000501 -0.0000420 -0.0000589
0.0000491 0.0008410 -0.0000564 0.0003743 -0.0000193 0.0007097 0.0000488 0.0007596 0.0000780 0.0011682 0.0000032 0.0003019 -0.0000512 0.0000860 0.0001266 0.0005229 0.0000558 0.0003502 0.0001050 0.0006980 0.0000902 0.0002423 0.0000052 0.0004563 0.0000354 0.0004026 0.0000630 0.0001320 -0.0001044 0.0001251 0.0000484 -0.0000048 0.0000437 -0.0000066 0.0000772 0.0005396 0.0000995 0.0001402 -0.0001541 0.0003141 -0.0000019 -0.0000234 -0.0000450 -0.0000430
0.0000320 0.0008736 -0.0000564 0.0003928 -0.0000150 0.0007061 0.0000687 0.0007627 0.0000786 0.0011991 0.0000019 0.0003091 -0.0000533 0.0001072 0.0001162 0.0005458 0.0000543 0.0003654 0.0001044 0.0007237 0.0000876 0.0002693 0.0000055 0.0004728 0.0000295 0.0004300 0.0000587 0.0001528 -0.0001071 0.0001499 0.0000456 0.0000112 0.0000421 -0.0000023 0.0000723 0.0005632 0.0000970 0.0001509 -0.0001552 0.0003250 -0.0000050 0.0000005 -0.0000486 -0.0000275
0.0000385 0.0008938 -0.0000550 0.0004030 -0.0000195 0.0007056 0.0000997 0.0007571 0.0000753 0.0012313 0.0000006 0.0003099 -0.0000561 0.0001209 0.0001074 0.0005531 0.0000525 0.0003725 0.0001025 0.0007397 0.0000857 0.0002781 0.0000029 0.0004828 0.0000247 0.0004454 0.0000559 0.0001613 -0.0001095 0.0001521 0.0000432 0.0000060 0.0000394 -0.0000131 0.0000724 0.0005680 0.0000952 0.0001484 -0.0001584 0.0003187 -0.0000070 -0.0000012 -0.0000522 -0.0000346
0.0000403 0.0008891 -0.0000565 0.0003906 -0.0000290 0.0006871 0.0000799 0.0007797 0.0000742 0.0012453 0.0000027 0.0003028 -0.0000579 0.0001234 0.0001030 0.0005522 0.0000501 0.0003727 0.0001015 0.0007453 0.0000851 0.0002685 -0.0000000 0.0004860 0.0000222 0.0004484 0.0000517 0.0001662 -0.0001121 0.0001417 0.0000421 -0.0000104 0.0000380 -0.0000352 0.0000715 0.0005673 0.0000944 0.0001356 -0.0001600 0.0003033 -0.0000093 -0.0000099 -0.0000555 -0.0000502
0.0000245 0.0008900 -0.0000614 0.0003746 -0.0000328 0.0006761 0.0000769 0.0007800 0.0000733 0.0012450 0.0000007 0.0002975 -0.0000590 0.0001207 0.0001042 0.0005380 0.0000487 0.0003649 0.0001005 0.0007412 0.0000847 0.0002489 -0.0000016 0.0004831 0.0000192 0.0004432 0.0000466 0.0001677 -0.0001111 0.0001198 0.0000404 -0.0000304 0.0000365 -0.0000636 0.0000719 0.0005577 0.0000924 0.0001208 -0.0001621 0.0002838 -0.0000106 -0.0000231 -0.0000582 -0.0000696
0.0000216 0.0008843 -0.0000645 0.0003582 -0.0000368 0.0006576 0.0000231 0.0008218 0.0000730 0.0012475 -0.0000018 0.0002991 -0.0000625 0.0001271 0.0000995 0.0005340 0.0000467 0.0003655 0.0000997 0.0007434 0.0000820 0.0002501 -0.0000056 0.0004887 0.0000164 0.0004497 0.0000440 0.0001725 -0.0001160 0.0001296 0.0000425 -0.0000350 0.0000356 -0.0000770 0.0000715 0.0005576 0.0000909 0.0001164 -0.0001639 0.0002852 -0.0000133 -0.0000098 -0.0000612 -0.0000645
0.0000062 0.0008897 -0.0000653 0.0003558 -0.0000528 0.0006558 0.0000242 0.0008212 0.0000753 0.0012507 -0.0000030 0.0002990 -0.0000651 0.0001401 0.0001000 0.0005307 0.0000443 0.0003698 0.0000980 0.0007511 0.0000774 0.0002637 -0.0000120 0.0004978 0.0000111 0.0004637 0.0000414 0.0001808 -0.0001191 0.0001415 0.0000386 -0.0000277 0.0000355 -0.0000845 0.0000703 0.0005611 0.0000871 0.0001198 -0.0001654 0.0002903 -0.0000158 0.0000077 -0.0000647 -0.0000529
0.0000122 0.0008894 -0.0000659 0.0003574 -0.0000457 0.0006371 0.0000411 0.0008044 0.0000709 0.0012677 -0.0000054 0.0003016 -0.0000680 0.0001554 0.0001053 0.0005235 0.0000421 0.0003754 0.0000943 0.0007592 0.0000736 0.0002787 -0.0000165 0.0005053 0.0000097 0.0004699 0.0000388 0.0001878 -0.0001205 0.0001525 0.0000397 -0.0000362 0.0000343 -0.0000968 0.0000660 0.0005656 0.0000844 0.0001142 -0.0001673 0.0002868 -0.0000171 0.0000078 -0.0000676 -0.0000567
0.0000172 0.0008753 -0.0000685 0.0003425 -0.0000343 0.0006057 0.0000335 0.0008141 0.0000706 0.0012653 -0.0000065 0.0002962 -0.0000702 0.0001586 0.0000989 0.0005177 0.0000414 0.0003691 0.0000932 0.0007535 0.0000732 0.0002661 -0.0000167 0.0005012 0.0000087 0.0004673 0.0000344 0.0001903 -0.0001214 0.0001428 0.0000390 -0.0000516 0.0000329 -0.0001206 0.0000667 0.0005564 0.0000824 0.0001014 -0.0001701 0.0002740 -0.0000185 -0.0000019 -0.0000701 -0.0000721
0.0000045 0.0008610 -0.0000741 0.0003215 -0.0000457 0.0005833 0.0000386 0.0007845 0.0000675 0.0012555 -0.0000058 0.0002862 -0.0000741 0.0001580 0.0000983 0.0005023 0.0000399 0.0003589 0.0000903 0.0007421 0.0000715 0.0002467 -0.0000202 0.0004925 0.0000048 0.0004584 0.0000333 0.0001821 -0.0001228 0.0001261 0.0000389 -0.0000746 0.0000327 -0.0001510 0.0000661 0.0005428 0.0000819 0.0000818 -0.0001731 0.0002555 -0.0000186 -0.0000208 -0.0000727 -0.0000930
-0.0000089 0.0008444 -0.0000774 0.0002883 -0.0000474 0.0005602 0.0000009 0.0008011 0.0000610 0.0012426 -0.0000047 0.0002756 -0.0000740 0.0001489 0.0001036 0.0004772 0.0000390 0.0003439 0.0000883 0.0007244 0.0000700 0.0002193 -0.0000239 0.0004816 0.0000017 0.0004452 0.0000299 0.0001749 -0.0001235 0.0001007 0.0000398 -0.0001013 0.0000324 -0.0001826 0.0000659 0.0005283 0.0000804 0.0000650 -0.0001751 0.0002380 -0.0000187 -0.0000327 -0.0000746 -0.0001088
-0.0000299 0.0008485 -0.0000779 0.0002662 -0.0000568 0.0005403 0.0000233 0.0007644 0.0000572 0.0012275 -0.0000062 0.0002735 -0.0000758 0.0001519 0.0000943 0.0004725 0.0000370 0.0003390 0.0000852 0.0007181 0.0000670 0.0002151 -0.0000315 0.0004796 -0.0000003 0.0004399 0.0000273 0.0001737 -0.0001255 0.0001000 0.0000404 -0.0001076 0.0000331 -0.0001999 0.0000636 0.0005227 0.0000785 0.0000609 -0.0001772 0.0002378 -0.0000201 -0.0000247 -0.0000761 -0.0001078
0.0000087 0.0008210 -0.0000793 0.0002566 -0.0000417 0.0005071 0.0000419 0.0007452 0.0000539 0.0012204 -0.0000068 0.0002704 -0.0000791 0.0001597 0.0000954 0.0004647 0.0000342 0.0003391 0.0000821 0.0007149 0.0000651 0.0002180 -0.0000349 0.0004767 -0.0000019 0.0004382 0.0000257 0.0001727 -0.0001263 0.0001054 0.0000417 -0.0001171 0.0000332 -0.0002136 0.0000600 0.0005211 0.0000774 0.0000559 -0.0001785 0.0002350 -0.0000206 -0.0000262 -0.0000782 -0.0001114
-0.0000037 0.0008103 -0.0000810 0.0002361 -0.0000399 0.0004888 0.0000212 0.0007493 0.0000580 0.0011949 -0.0000069 0.0002643 -0.0000809 0.0001564 0.0000943 0.0004485 0.0000325 0.0003316 0.0000789 0.0007041 0.0000613 0.0002047 -0.0000377 0.0004659 -0.0000055 0.0004298 0.0000222 0.0001674 -0.0001279 0.0000945 0.0000424 -0.0001386 0.0000331 -0.0002382 0.0000577 0.0005110 0.0000761 0.0000429 -0.0001803 0.0002234 -0.0000202 -0.0000414 -0.0000796 -0.0001293
-0.0000131 0.0008127 -0.0000838 0.0002078 -0.0000261 0.0004570 0.0000195 0.0007203 0.0000582 0.0011687 -0.0000083 0.0002560 -0.0000824 0.0001494 0.0000884 0.0004452 0.0000310 0.0003197 0.0000745 0.0006894 0.0000590 0.0001838 -0.0000384 0.0004554 -0.0000068 0.0004133 0.0000196 0.0001566 -0.0001288 0.0000733 0.0000448 -0.0001667 0.0000338 -0.0002694 0.0000578 0.0004950 0.0000742 0.0000278 -0.0001826 0.0002044 -0.0000190 -0.0000650 -0.0000809 -0.0001529
-0.0000245 0.0008033 -0.0000883 0.0001742 -0.0000333 0.0004381 0.0000623 0.0006717 0.0000574 0.0011418 -0.0000055 0.0002416 -0.0000807 0.0001345 0.0000918 0.0004276 0.0000296 0.0003047 0.0000695 0.0006688 0.0000576 0.0001513 -0.0000417 0.0004393 -0.0000083 0.0003922 0.0000191 0.0001397 -0.0001270 0.0000385 0.0000460 -0.0001969 0.0000350 -0.0003041 0.0000568 0.0004743 0.0000717 0.0000121 -0.0001854 0.0001838 -0.0000178 -0.0000940 -0.0000810 -0.0001808
-0.0000334 0.0007879 -0.0000937 0.0001344 -0.0000231 0.0004092 0.0000602 0.0006434 0.0000568 0.0011065 -0.0000039 0.0002277 -0.0000819 0.0001190 0.0000873 0.0004136 0.0000296 0.0002887 0.0000673 0.0006437 0.0000574 0.0001156 -0.0000440 0.0004265 -0.0000115 0.0003750 0.0000199 0.0001234 -0.0001309 0.0000136 0.0000472 -0.0002145 0.0000376 -0.0003313 0.0000547 0.0004587 0.0000714 0.0000029 -0.0001854 0.0001768 -0.0000172 -0.0001005 -0.0000805 -0.0001897
-0.0000285 0.0007704 -0.0000945 0.0001208 -0.0000160 0.0003862 0.0000558 0.0006279 0.0000577 0.0010830 -0.0000065 0.0002260 -0.0000836 0.0001201 0.0000860 0.0004002 0.0000297 0.0002848 0.0000641 0.0006340 0.0000556 0.0001129 -0.0000426 0.0004153 -0.0000107 0.0003665 0.0000184 0.0001190 -0.0001332 0.0000152 0.0000511 -0.0002275 0.0000404 -0.0003441 0.0000514 0.0004551 0.0000715 0.0000032 -0.0001855 0.0001783 -0.0000161 -0.0001038 -0.0000806 -0.0001922
-0.0000356 0.0007548 -0.0000962 0.0001035 -0.0000128 0.0003634 0.0000237 0.0006365 0.0000551 0.0010676 -0.0000082 0.0002226 -0.0000842 0.0001119 0.0000882 0.0003869 0.0000289 0.0002769 0.0000609 0.0006183 0.0000545 0.0000968 -0.0000438 0.0004042 -0.0000139 0.0003538 0.0000176 0.0001087 -0.0001336 -0.0000017 0.0000518 -0.0002497 0.0000434 -0.0003667 0.0000476 0.0004475 0.0000706 -0.0000028 -0.0001853 0.0001680 -0.0000150 -0.0001221 -0.0000802 -0.0002089
-0.0000269 0.0007381 -0.0000931 0.0000738 -0.0000137 0.0003434 0.0000335 0.0006150 0.0000547 0.0010411 -0.0000089 0.0002167 -0.0000849 0.0001017 0.0000883 0.0003756 0.0000286 0.0002682 0.0000584 0.0005981 0.0000553 0.0000735 -0.0000484 0.0003950 -0.0000148 0.0003357 0.0000184 0.0000943 -0.0001322 -0.0000274 0.0000541 -0.0002789 0.0000461 -0.0003900 0.0000457 0.0004358 0.0000714 -0.0000150 -0.0001859 0.0001562 -0.0000120 -0.0001497 -0.0000790 -0.0002322
-0.0000230 0.0007235 -0.0000947 0.0000413 -0.0000262 0.0003376 0.0000019 0.0006343 0.0000550 0.0010080 -0.0000092 0.0002091 -0.0000846 0.0000866 0.0000790 0.0003703 0.0000297 0.0002554 0.0000558 0.0005745 0.0000566 0.0000442 -0.0000474 0.0003786 -0.0000146 0.0003120 0.0000203 0.0000758 -0.0001326 -0.0000586 0.0000588 -0.0003126 0.0000485 -0.0004161 0.0000476 0.0004157 0.0000731 -0.0000277 -0.0001863 0.0001415 -0.0000093 -0.0001811 -0.0000766 -0.0002596
-0.0000451 0.0007278 -0.0000982 0.0000110 -0.0000296 0.0003206 0.0000466 0.0005680 0.0000510 0.0009807 -0.0000091 0.0001972 -0.0000850 0.0000681 0.0000786 0.0003504 0.0000296 0.0002453 0.0000526 0.0005514 0.0000583 0.0000131 -0.0000533 0.0003685 -0.0000134 0.0002849 0.0000220 0.0000562 -0.0001322 -0.0000916 0.0000657 -0.0003459 0.0000530 -0.0004459 0.0000495 0.0003935 0.0000761 -0.0000438 -0.0001864 0.0001269 -0.0000065 -0.0002116 -0.0000734 -0.0002879
-0.0000695 0.0007265 -0.0001008 -0.0000161 -0.0000220 0.0002996 0.0000185 0.0005567 0.0000535 0.0009520 -0.0000111 0.0001975 -0.0000869 0.0000610 0.0000777 0.0003501 0.0000290 0.0002419 0.0000500 0.0005366 0.0000598 0.0000015 -0.0000559 0.0003644 -0.0000127 0.0002713 0.0000228 0.0000469 -0.0001332 -0.0001011 0.0000710 -0.0003571 0.0000591 -0.0004576 0.0000522 0.0003835 0.0000770 -0.0000393 -0.0001830 0.0001291 -0.0000048 -0.0002163 -0.0000702 -0.0002913
-0.0000942 0.0007333 -0.0000998 -0.0000200 -0.0000149 0.0002917 0.0000061 0.0005436 0.0000509 0.0009391 -0.0000118 0.0001956 -0.0000861 0.0000563 0.0000770 0.0003478 0.0000302 0.0002412 0.0000472 0.0005264 0.0000618 -0.0000055 -0.0000570 0.0003576 -0.0000140 0.0002617 0.0000234 0.0000368 -0.0001330 -0.0001128 0.0000793 -0.0003779 0.0000645 -0.0004724 0.0000515 0.0003764 0.0000780 -0.0000401 -0.0001803 0.0001230 -0.0000014 -0.0002383 -0.0000669 -0.0003085
-0.0001046 0.0007337 -0.0001014 -0.0000364 -0.0000161 0.0002935 0.0000091 0.0005211 0.0000493 0.0009213 -0.0000107 0.0001895 -0.0000853 0.0000433 0.0000845 0.0003397 0.0000317 0.0002370 0.0000447 0.0005116 0.0000640 -0.0000248 -0.0000557 0.0003470 -0.0000138 0.0002464 0.0000247 0.0000229 -0.0001338 -0.0001346 0.0000870 -0.0004033 0.0000695 -0.0004917 0.0000527 0.0003644 0.0000795 -0.0000438 -0.0001773 0.0001117 0.0000013 -0.0002650 -0.0000626 -0.0003319
-0.0001040 0.0007310 -0.0001027 -0.0000559 -0.0000264 0.0002883 0.0000006 0.0004998 0.0000476 0.0009011 -0.0000111 0.0001845 -0.0000859 0.0000285 0.0000849 0.0003402 0.0000340 0.0002304 0.0000429 0.0004929 0.0000664 -0.0000479 -0.0000564 0.0003398 -0.0000114 0.0002243 0.0000268 0.0000072 -0.0001311 -0.0001680 0.0000921 -0.0004296 0.0000749 -0.0005137 0.0000520 0.0003522 0.0000829 -0.0000512 -0.0001752 0.0000968 0.0000052 -0.0002987 -0.0000581 -0.0003613
-0.0000774 0.0007086 -0.0001073 -0.0000734 -0.0000218 0.0002809 0.0000381 0.0004537 0.0000383 0.0008841 -0.0000104 0.0001786 -0.0000834 0.0000067 0.0000797 0.0003388 0.0000362 0.0002226 0.0000423 0.0004714 0.0000727 -0.0000791 -0.0000571 0.0003319 -0.0000076 0.0001989 0.0000282 -0.0000109 -0.0001314 -0.0001975 0.0001016 -0.0004634 0.0000812 -0.0005377 0.0000527 0.0003373 0.0000863 -0.0000609 -0.0001727 0.0000794 0.0000089 -0.0003339 -0.0000528 -0.0003942
-0.0000758 0.0006983 -0.0001095 -0.0000953 -0.0000161 0.0002685 -0.0000058 0.0004559 0.0000405 0.0008539 -0.0000119 0.0001747 -0.0000813 -0.0000116 0.0000799 0.0003374 0.0000373 0.0002174 0.0000419 0.0004522 0.0000772 -0.0001065 -0.0000560 0.0003247 -0.0000069 0.0001832 0.0000297 -0.0000258 -0.0001304 -0.0002232 0.0001074 -0.0004786 0.0000887 -0.0005531 0.0000523 0.0003300 0.0000905 -0.0000611 -0.0001702 0.0000748 0.0000114 -0.0003466 -0.0000477 -0.0004064
-0.0000856 0.0007236 -0.0001088 -0.0000946 -0.0000224 0.0002795 0.0000321 0.0004127 0.0000356 0.0008492 -0.0000124 0.0001770 -0.0000789 -0.0000185 0.0000873 0.0003367 0.0000385 0.0002245 0.0000407 0.0004484 0.0000807 -0.0001056 -0.0000580 0.0003296 -0.0000075 0.0001781 0.0000318 -0.0000322 -0.0001299 -0.0002264 0.0001125 -0.0004827 0.0000962 -0.0005543 0.0000485 0.0003329 0.0000936 -0.0000523 -0.0001660 0.0000787 0.0000147 -0.0003517 -0.0000426 -0.0004100
-0.0000670 0.0007236 -0.0001075 -0.0000932 -0.0000194 0.0002910 0.0000398 0.0004003 0.0000323 0.0008427 -0.0000116 0.0001735 -0.0000758 -0.0000290 0.0000924 0.0003391 0.0000406 0.0002270 0.0000401 0.0004409 0.0000845 -0.0001151 -0.0000588 0.0003311 -0.0000040 0.0001641 0.0000324 -0.0000416 -0.0001273 -0.0002426 0.0001185 -0.0004972 0.0001026 -0.0005653 0.0000485 0.0003264 0.0000948 -0.0000493 -0.0001623 0.0000686 0.0000182 -0.0003758 -0.0000382 -0.0004305
-0.0000707 0.0007302 -0.0001083 -0.0000997 -0.0000130 0.0002926 0.0000457 0.0003640 0.0000321 0.0008263 -0.0000118 0.0001699 -0.0000745 -0.0000437 0.0000942 0.0003466 0.0000429 0.0002252 0.0000388 0.0004292 0.0000906 -0.0001379 -0.0000584 0.0003293 -0.0000010 0.0001485 0.0000354 -0.0000580 -0.0001242 -0.0002733 0.0001260 -0.0005206 0.0001094 -0.0005838 0.0000488 0.0003155 0.0000995 -0.0000557 -0.0001584 0.0000524 0.0000222 -0.0004069 -0.0000329 -0.0004591
-0.0000518 0.0007069 -0.0001086 -0.0001128 -0.0000116 0.0003038 0.0000224 0.0003878 0.0000353 0.0008122 -0.0000126 0.0001675 -0.0000715 -0.0000625 0.0000986 0.0003434 0.0000458 0.0002216 0.0000396 0.0004139 0.0000961 -0.0001640 -0.0000583 0.0003239 -0.0000008 0.0001315 0.0000415 -0.0000767 -0.0001189 -0.0003089 0.0001336 -0.0005484 0.0001165 -0.0006046 0.0000516 0.0003012 0.0001015 -0.0000624 -0.0001551 0.0000318 0.0000270 -0.0004437 -0.0000274 -0.0004915
-0.0000687 0.0007097 -0.0001079 -0.0001296 -0.0000236 0.0003177 0.0000212 0.0003790 0.0000304 0.0008006 -0.0000125 0.0001622 -0.0000696 -0.0000821 0.0000981 0.0003427 0.0000503 0.0002134 0.0000399 0.0003956 0.0001035 -0.0001968 -0.0000566 0.0003160 0.0000021 0.0001102 0.0000438 -0.0000912 -0.0001137 -0.0003453 0.0001414 -0.0005721 0.0001247 -0.0006238 0.0000527 0.0002887 0.0001052 -0.0000695 -0.0001510 0.0000157 0.0000308 -0.0004654 -0.0000212 -0.0005132
-0.0000641 0.0007010 -0.0001069 -0.0001284 -0.0000326 0.0003266 0.0000275 0.0003449 0.0000235 0.0008032 -0.0000134 0.0001628 -0.0000694 -0.0000862 0.0000977 0.0003498 0.0000525 0.0002185 0.0000403 0.0003900 0.0001094 -0.0002020 -0.0000546 0.0003187 0.0000027 0.0001067 0.0000465 -0.0000958 -0.0001103 -0.0003601 0.0001480 -0.0005783 0.0001328 -0.0006258 0.0000545 0.0002859 0.0001075 -0.0000642 -0.0001466 0.0000138 0.0000338 -0.0004722 -0.0000165 -0.0005176
-0.0000426 0.0006746 -0.0001024 -0.0001233 -0.0000495 0.0003560 -0.0000027 0.0003860 0.0000205 0.0008089 -0.0000139 0.0001657 -0.0000681 -0.0000887 0.0000999 0.0003545 0.0000557 0.0002258 0.0000406 0.0003916 0.0001140 -0.0002015 -0.0000554 0.0003255 0.0000043 0.0001071 0.0000491 -0.0000956 -0.0001087 -0.0003620 0.0001524 -0.0005775 0.0001412 -0.0006214 0.0000542 0.0002892 0.0001101 -0.0000541 -0.0001418 0.0000186 0.0000358 -0.0004710 -0.0000120 -0.0005158
-0.0000525 0.0006865 -0.0000994 -0.0001083 -0.0000466 0.0003703 -0.0000436 0.0004158 0.0000186 0.0008208 -0.0000168 0.0001716 -0.0000673 -0.0000871 0.0000989 0.0003634 0.0000595 0.0002342 0.0000414 0.0003962 0.0001199 -0.0001966 -0.0000532 0.0003300 0.0000077 0.0001039 0.0000489 -0.0000945 -0.0001084 -0.0003635 0.0001562 -0.0005862 0.0001486 -0.0006254 0.0000558 0.0002882 0.0001139 -0.0000543 -0.0001380 0.0000076 0.0000380 -0.0004898 -0.0000078 -0.0005328
-0.0000844 0.0007154 -0.0000973 -0.0001144 -0.0000491 0.0003787 -0.0000096 0.0003874 0.0000199 0.0008189 -0.0000179 0.0001705 -0.0000635 -0.0001010 0.0001040 0.0003620 0.0000636 0.0002330 0.0000429 0.0003902 0.0001256 -0.0002155 -0.0000486 0.0003265 0.0000103 0.0000919 0.0000500 -0.0001030 -0.0000999 -0.0003968 0.0001628 -0.0006084 0.0001556 -0.0006409 0.0000565 0.0002808 0.0001167 -0.0000611 -0.0001358 -0.0000126 0.0000412 -0.0005200 -0.0000035 -0.0005614
-0.0001048 0.0007220 -0.0000956 -0.0001270 -0.0000473 0.0003907 -0.0000100 0.0003835 0.0000166 0.0008142 -0.0000150 0.0001637 -0.0000605 -0.0001192 0.0000977 0.0003719 0.0000674 0.0002272 0.0000444 0.0003782 0.0001319 -0.0002431 -0.0000498 0.0003274 0.0000122 0.0000763 0.0000525 -0.0001150 -0.0000942 -0.0004374 0.0001673 -0.0006257 0.0001614 -0.0006598 0.0000599 0.0002662 0.0001204 -0.0000723 -0.0001323 -0.0000359 0.0000434 -0.0005473 0.0000015 -0.0005891
-0.0000928 0.0007091 -0.0000942 -0.0001295 -0.0000452 0.0004005 -0.0000070 0.0003717 0.0000179 0.0008118 -0.0000162 0.0001663 -0.0000586 -0.0001256 0.0000955 0.0003753 0.0000701 0.0002317 0.0000467 0.0003748 0.0001364 -0.0002517 -0.0000490 0.0003338 0.0000181 0.0000674 0.0000557 -0.0001204 -0.0000911 -0.0004495 0.0001711 -0.0006270 0.0001688 -0.0006625 0.0000619 0.0002627 0.0001230 -0.0000700 -0.0001295 -0.0000403 0.0000454 -0.0005533 0.0000061 -0.0005952
-0.0000965 0.0007213 -0.0000956 -0.0001162 -0.0000470 0.0004198 -0.0000130 0.0003779 0.0000154 0.0008194 -0.0000148 0.0001679 -0.0000562 -0.0001268 0.0000875 0.0003911 0.0000721 0.0002413 0.0000466 0.0003823 0.0001405 -0.0002486 -0.0000458 0.0003403 0.0000202 0.0000702 0.0000590 -0.0001179 -0.0000881 -0.0004535 0.0001720 -0.0006203 0.0001758 -0.0006589 0.0000638 0.0002624 0.0001242 -0.0000623 -0.0001266 -0.0000400 0.0000464 -0.0005510 0.0000089 -0.0005928
-0.0001126 0.0007466 -0.0000939 -0.0001010 -0.0000331 0.0004266 0.0000097 0.0003704 0.0000163 0.0008330 -0.0000170 0.0001750 -0.0000545 -0.0001233 0.0000938 0.0003994 0.0000732 0.0002547 0.0000479 0.0003920 0.0001438 -0.0002406 -0.0000477 0.0003537 0.0000224 0.0000767 0.0000600 -0.0001118 -0.0000857 -0.0004513 0.0001742 -0.0006103 0.0001825 -0.0006518 0.0000654 0.0002662 0.0001266 -0.0000566 -0.0001224 -0.0000394 0.0000472 -0.0005450 0.0000107 -0.0005871
-0.0001080 0.0007634 -0.0000910 -0.0000866 -0.0000340 0.0004449 -0.0000216 0.0004163 0.0000159 0.0008501 -0.0000174 0.0001841 -0.0000535 -0.0001163 0.0000974 0.0004124 0.0000756 0.0002665 0.0000498 0.0004033 0.0001447 -0.0002288 -0.0000451 0.0003657 0.0000226 0.0000887 0.0000611 -0.0001049 -0.0000814 -0.0004514 0.0001765 -0.0006097 0.0001874 -0.0006454 0.0000666 0.0002709 0.0001278 -0.0000515 -0.0001190 -0.0000460 0.0000482 -0.0005530 0.0000123 -0.0005927
-0.0000952 0.0007478 -0.0000887 -0.0000872 -0.0000374 0.0004615 -0.0000023 0.0004273 0.0000129 0.0008600 -0.0000152 0.0001815 -0.0000499 -0.0001266 0.0000869 0.0004179 0.0000796 0.0002668 0.0000527 0.0004024 0.0001486 -0.0002468 -0.0000434 0.0003663 0.0000235 0.0000840 0.0000607 -0.0001058 -0.0000753 -0.0004783 0.0001764 -0.0006218 0.0001909 -0.0006554 0.0000654 0.0002680 0.0001309 -0.0000655 -0.0001171 -0.0000672 0.0000502 -0.0005788 0.0000138 -0.0006164
-0.0000875 0.0007354 -0.0000853 -0.0001052 -0.0000388 0.0004708 0.0000015 0.0004468 0.0000099 0.0008610 -0.0000148 0.0001824 -0.0000496 -0.0001357 0.0000846 0.0004199 0.0000829 0.0002675 0.0000558 0.0004005 0.0001517 -0.0002609 -0.0000438 0.0003730 0.0000282 0.0000759 0.0000629 -0.0001073 -0.0000698 -0.0004975 0.0001754 -0.0006206 0.0001948 -0.0006571 0.0000664 0.0002665 0.0001316 -0.0000677 -0.0001157 -0.0000755 0.0000510 -0.0005834 0.0000152 -0.0006208
-0.0000601 0.0007181 -0.0000848 -0.0000972 -0.0000350 0.0004738 0.0000136 0.0004600 0.0000078 0.0008720 -0.0000137 0.0001871 -0.0000494 -0.0001332 0.0000776 0.0004272 0.0000848 0.0002754 0.0000584 0.0004076 0.0001539 -0.0002584 -0.0000447 0.0003834 0.0000311 0.0000808 0.0000651 -0.0001035 -0.0000666 -0.0005025 0.0001746 -0.0006105 0.0001990 -0.0006526 0.0000650 0.0002723 0.0001326 -0.0000659 -0.0001132 -0.0000776 0.0000511 -0.0005779 0.0000145 -0.0006150
-0.0000791 0.0007388 -0.0000830 -0.0000869 -0.0000274 0.0004876 0.0000735 0.0004289 0.0000087 0.0008871 -0.0000133 0.0001917 -0.0000488 -0.0001252 0.0000798 0.0004269 0.0000856 0.0002864 0.0000613 0.0004183 0.0001561 -0.0002505 -0.0000437 0.0003933 0.0000311 0.0000914 0.0000648 -0.0000946 -0.0000645 -0.0004953 0.0001756 -0.0006007 0.0002028 -0.0006425 0.0000684 0.0002767 0.0001322 -0.0000599 -0.0001102 -0.0000768 0.0000507 -0.0005656 0.0000142 -0.0006039
-0.0001136 0.0007580 -0.0000790 -0.0000780 -0.0000263 0.0004991 0.0000373 0.0004756 0.0000135 0.0009062 -0.0000108 0.0001929 -0.0000512 -0.0001106 0.0000855 0.0004287 0.0000872 0.0002982 0.0000633 0.0004335 0.0001564 -0.0002372 -0.0000388 0.0003991 0.0000322 0.0001041 0.0000678 -0.0000846 -0.0000592 -0.0004931 0.0001747 -0.0005853 0.0002060 -0.0006327 0.0000695 0.0002843 0.0001339 -0.0000567 -0.0001078 -0.0000752 0.0000501 -0.0005523 0.0000125 -0.0005894
-0.0001221 0.0007715 -0.0000757 -0.0000690 -0.0000345 0.0005253 0.0000222 0.0005112 0.0000066 0.0009296 -0.0000120 0.0002002 -0.0000516 -0.0000990 0.0000843 0.0004364 0.0000906 0.0003069 0.0000659 0.0004488 0.0001580 -0.0002254 -0.0000369 0.0004099 0.0000333 0.0001170 0.0000688 -0.0000722 -0.0000574 -0.0004832 0.0001715 -0.0005676 0.0002083 -0.0006191 0.0000724 0.0002918 0.0001344 -0.0000514 -0.0001048 -0.0000695 0.0000483 -0.0005357 0.0000102 -0.0005732
-0.0001054 0.0007483 -0.0000745 -0.0000540 -0.0000309 0.0005362 -0.0000297 0.0005618 0.0000109 0.0009440 -0.0000120 0.0002059 -0.0000523 -0.0000855 0.0000823 0.0004385 0.0000927 0.0003130 0.0000681 0.0004583 0.0001602 -0.0002210 -0.0000364 0.0004164 0.0000348 0.0001225 0.0000699 -0.0000663 -0.0000540 -0.0004851 0.0001701 -0.0005664 0.0002088 -0.0006187 0.0000761 0.0002911 0.0001351 -0.0000578 -0.0001035 -0.0000806 0.0000479 -0.0005432 0.0000076 -0.0005774
-0.0001200 0.0007521 -0.0000733 -0.0000609 -0.0000290 0.0005431 -0.0000275 0.0005709 0.0000169 0.0009496 -0.0000134 0.0002132 -0.0000530 -0.0000773 0.0000859 0.0004359 0.0000945 0.0003176 0.0000704 0.0004677 0.0001615 -0.0002203 -0.0000363 0.0004242 0.0000359 0.0001318 0.0000698 -0.0000549 -0.0000557 -0.0004821 0.0001652 -0.0005553 0.0002106 -0.0006128 0.0000762 0.0002979 0.0001365 -0.0000612 -0.0001022 -0.0000804 0.0000467 -0.0005318 0.0000054 -0.0005664
-0.0001103 0.0007512 -0.0000717 -0.0000546 -0.0000276 0.0005476 -0.0000123 0.0005722 0.0000161 0.0009708 -0.0000141 0.0002218 -0.0000537 -0.0000626 0.0000802 0.0004386 0.0000949 0.0003293 0.0000735 0.0004810 0.0001618 -0.0002079 -0.0000348 0.0004346 0.0000363 0.0001447 0.0000693 -0.0000408 -0.0000559 -0.0004682 0.0001600 -0.0005387 0.0002105 -0.0005999 0.0000775 0.0003071 0.0001374 -0.0000602 -0.0001003 -0.0000770 0.0000450 -0.0005163 0.0000029 -0.0005508
-0.0001253 0.0007618 -0.0000684 -0.0000491 -0.0000282 0.0005510 0.0000000 0.0005569 0.0000136 0.0009894 -0.0000127 0.0002282 -0.0000550 -0.0000464 0.0000757 0.0004427 0.0000963 0.0003377 0.0000764 0.0004934 0.0001620 -0.0001959 -0.0000330 0.0004462 0.0000379 0.0001606 0.0000703 -0.0000271 -0.0000534 -0.0004544 0.0001564 -0.0005221 0.0002103 -0.0005853 0.0000745 0.0003221 0.0001401 -0.0000601 -0.0000988 -0.0000702 0.0000428 -0.0004954 -0.0000014 -0.0005305
-0.0001376 0.0007773 -0.0000677 -0.0000370 -0.0000239 0.0005557 -0.0000265 0.0005881 0.0000196 0.0010018 -0.0000139 0.0002376 -0.0000556 -0.0000291 0.0000726 0.0004533 0.0000964 0.0003493 0.0000781 0.0005098 0.0001605 -0.0001781 -0.0000347 0.0004632 0.0000395 0.0001760 0.0000710 -0.0000136 -0.0000530 -0.0004386 0.0001483 -0.0005004 0.0002086 -0.0005693 0.0000755 0.0003319 0.0001394 -0.0000536 -0.0000985 -0.0000614 0.0000399 -0.0004732 -0.0000064 -0.0005082
-0.0001390 0.0007774 -0.0000666 -0.0000259 -0.0000147 0.0005592 -0.0000294 0.0006128 0.0000202 0.0010184 -0.0000114 0.0002445 -0.0000573 -0.0000097 0.0000697 0.0004627 0.0000981 0.0003590 0.0000807 0.0005255 0.0001593 -0.0001609 -0.0000360 0.0004807 0.0000402 0.0001924 0.0000709 0.0000016 -0.0000535 -0.0004147 0.0001434 -0.0004798 0.0002066 -0.0005533 0.0000761 0.0003433 0.0001395 -0.0000475 -0.0000977 -0.0000508 0.0000371 -0.0004494 -0.0000117 -0.0004846
-0.0001524 0.0008006 -0.0000674 -0.0000086 -0.0000205 0.0005707 0.0000009 0.0005921 0.0000209 0.0010348 -0.0000110 0.0002526 -0.0000583 0.0000097 0.0000658 0.0004752 0.0000975 0.0003721 0.0000824 0.0005417 0.0001582 -0.0001403 -0.0000345 0.0004929 0.0000414 0.0002093 0.0000702 0.0000173 -0.0000515 -0.0003939 0.0001371 -0.0004564 0.0002032 -0.0005358 0.0000780 0.0003563 0.0001398 -0.0000423 -0.0000976 -0.0000383 0.0000339 -0.0004247 -0.0000177 -0.0004596
-0.0001482 0.0008038 -0.0000670 0.0000089 -0.0000182 0.0005794 0.0000068 0.0006142 0.0000264 0.0010479 -0.0000105 0.0002624 -0.0000621 0.0000329 0.0000622 0.0004814 0.0000968 0.0003868 0.0000842 0.0005594 0.0001571 -0.0001176 -0.0000362 0.0005129 0.0000398 0.0002307 0.0000701 0.0000359 -0.0000489 -0.0003705 0.0001336 -0.0004359 0.0001994 -0.0005152 0.0000803 0.0003689 0.0001409 -0.0000370 -0.0000958 -0.0000240 0.0000317 -0.0003994 -0.0000242 -0.0004313
-0.0001302 0.0007960 -0.0000657 0.0000227 -0.0000170 0.0005936 0.0000081 0.0006407 0.0000229 0.0010703 -0.0000083 0.0002717 -0.0000661 0.0000562 0.0000554 0.0004901 0.0000971 0.0004000 0.0000867 0.0005757 0.0001551 -0.0000974 -0.0000364 0.0005293 0.0000387 0.0002527 0.0000709 0.0000549 -0.0000506 -0.0003446 0.0001277 -0.0004146 0.0001964 -0.0004944 0.0000824 0.0003851 0.0001410 -0.0000314 -0.0000941 -0.0000112 0.0000283 -0.0003721 -0.0000315 -0.0004029
-0.0001158 0.0008000 -0.0000636 0.0000357 -0.0000170 0.0005992 0.0000069 0.0006587 0.0000271 0.0010866 -0.0000114 0.0002850 -0.0000691 0.0000792 0.0000594 0.0004942 0.0000963 0.0004148 0.0000883 0.0005930 0.0001531 -0.0000772 -0.0000346 0.0005440 0.0000375 0.0002730 0.0000698 0.0000750 -0.0000510 -0.0003219 0.0001206 -0.0003932 0.0001932 -0.0004742 0.0000830 0.0004022 0.0001422 -0.0000277 -0.0000935 0.0000024 0.0000247 -0.0003453 -0.0000389 -0.0003755
-0.0001278 0.0008170 -0.0000610 0.0000455 -0.0000171 0.0006030 0.0000005 0.0006772 0.0000263 0.0011046 -0.0000099 0.0002931 -0.0000729 0.0001027 0.0000586 0.0005026 0.0000959 0.0004268 0.0000893 0.0006089 0.0001507 -0.0000567 -0.0000354 0.0005609 0.0000379 0.0002928 0.0000658 0.0000967 -0.0000520 -0.0002998 0.0001152 -0.0003724 0.0001876 -0.0004539 0.0000833 0.0004193 0.0001440 -0.0000250 -0.0000931 0.0000138 0.0000210 -0.0003185 -0.0000469 -0.0003480
-0.0001395 0.0008311 -0.0000604 0.0000588 -0.0000233 0.0006208 0.0000014 0.0006912 0.0000305 0.0011240 -0.0000112 0.0003036 -0.0000767 0.0001274 0.0000641 0.0005085 0.0000958 0.0004386 0.0000925 0.0006224 0.0001472 -0.0000348 -0.0000375 0.0005781 0.0000378 0.0003108 0.0000630 0.0001159 -0.0000525 -0.0002763 0.0001095 -0.0003490 0.0001821 -0.0004340 0.0000828 0.0004361 0.0001437 -0.0000187 -0.0000920 0.0000244 0.0000174 -0.0002920 -0.0000550 -0.0003208
-0.0001695 0.0008619 -0.0000584 0.0000713 -0.0000285 0.0006308 -0.0000104 0.0007132 0.0000328 0.0011406 -0.0000133 0.0003162 -0.0000810 0.0001508 0.0000602 0.0005241 0.0000950 0.0004506 0.0000935 0.0006367 0.0001432 -0.0000113 -0.0000350 0.0005927 0.0000367 0.0003309 0.0000607 0.0001343 -0.0000515 -0.0002550 0.0001013 -0.0003234 0.0001766 -0.0004156 0.0000800 0.0004551 0.0001421 -0.0000098 -0.0000925 0.0000389 0.0000129 -0.0002651 -0.0000634 -0.0002935
-0.0001818 0.0008645 -0.0000560 0.0000850 -0.0000288 0.0006428 -0.0000253 0.0007258 0.0000378 0.0011531 -0.0000143 0.0003250 -0.0000850 0.0001727 0.0000565 0.0005333 0.0000928 0.0004649 0.0000941 0.0006514 0.0001420 0.0000068 -0.0000326 0.0006023 0.0000358 0.0003459 0.0000576 0.0001546 -0.0000533 -0.0002331 0.0000905 -0.0003007 0.0001704 -0.0003987 0.0000802 0.0004673 0.0001432 -0.0000046 -0.0000913 0.0000498 0.0000091 -0.0002409 -0.0000721 -0.0002679
-0.0001623 0.0008730 -0.0000539 0.0000960 -0.0000356 0.0006543 -0.0000424 0.0007394 0.0000373 0.0011696 -0.0000166 0.0003371 -0.0000908 0.0001972 0.0000536 0.0005519 0.0000910 0.0004804 0.0000944 0.0006673 0.0001384 0.0000328 -0.0000322 0.0006190 0.0000352 0.0003671 0.0000540 0.0001760 -0.0000574 -0.0002017 0.0000822 -0.0002754 0.0001643 -0.0003762 0.0000810 0.0004832 0.0001412 0.0000093 -0.0000913 0.0000689 0.0000046 -0.0002087 -0.0000807 -0.0002351
-0.0001681 0.0009093 -0.0000573 0.0001212 -0.0000308 0.0006620 -0.0000608 0.0007587 0.0000431 0.0011871 -0.0000179 0.0003498 -0.0000933 0.0002232 0.0000620 0.0005622 0.0000891 0.0004982 0.0000941 0.0006864 0.0001367 0.0000592 -0.0000322 0.0006354 0.0000313 0.0003956 0.0000526 0.0001972 -0.0000610 -0.0001675 0.0000739 -0.0002470 0.0001580 -0.0003517 0.0000809 0.0005003 0.0001411 0.0000220 -0.0000905 0.0000888 -0.0000001 -0.0001750 -0.0000900 -0.0002004
-0.0001894 0.0009537 -0.0000539 0.0001376 -0.0000408 0.0006800 -0.0000604 0.0007822 0.0000473 0.0012106 -0.0000192 0.0003610 -0.0000992 0.0002522 0.0000604 0.0005801 0.0000878 0.0005176 0.0000949 0.0007038 0.0001339 0.0000886 -0.0000347 0.0006561 0.0000288 0.0004194 0.0000512 0.0002197 -0.0000624 -0.0001320 0.0000645 -0.0002156 0.0001516 -0.0003262 0.0000811 0.0005199 0.0001417 0.0000347 -0.0000910 0.0001096 -0.0000056 -0.0001399 -0.0000986 -0.0001661
-0.0001950 0.0009762 -0.0000547 0.0001639 -0.0000426 0.0006946 -0.0000708 0.0008142 0.0000444 0.0012371 -0.0000221 0.0003766 -0.0001021 0.0002772 0.0000568 0.0005997 0.0000863 0.0005379 0.0000949 0.0007246 0.0001307 0.0001202 -0.0000348 0.0006752 0.0000284 0.0004424 0.0000486 0.0002435 -0.0000654 -0.0000987 0.0000548 -0.0001818 0.0001438 -0.0002992 0.0000769 0.0005439 0.0001406 0.0000512 -0.0000911 0.0001321 -0.0000114 -0.0001056 -0.0001082 -0.0001315
-0.0001984 0.0010015 -0.0000519 0.0001888 -0.0000431 0.0007106 -0.0000221 0.0008001 0.0000432 0.0012608 -0.0000269 0.0003947 -0.0001052 0.0003012 0.0000576 0.0006125 0.0000827 0.0005605 0.0000946 0.0007449 0.0001265 0.0001533 -0.0000372 0.0006992 0.0000269 0.0004657 0.0000420 0.0002700 -0.0000694 -0.0000605 0.0000464 -0.0001515 0.0001360 -0.0002723 0.0000747 0.0005660 0.0001396 0.0000667 -0.0000906 0.0001565 -0.0000167 -0.0000719 -0.0001173 -0.0000984
-0.0002012 0.0010277 -0.0000513 0.0002192 -0.0000411 0.0007227 0.0000075 0.0008011 0.0000558 0.0012757 -0.0000252 0.0004011 -0.0001094 0.0003230 0.0000445 0.0006385 0.0000789 0.0005791 0.0000948 0.0007597 0.0001224 0.0001752 -0.0000387 0.0007149 0.0000226 0.0004832 0.0000374 0.0002892 -0.0000687 -0.0000469 0.0000385 -0.0001377 0.0001271 -0.0002612 0.0000738 0.0005747 0.0001404 0.0000678 -0.0000921 0.0001592 -0.0000197 -0.0000674 -0.0001262 -0.0000896
-0.0002117 0.0010459 -0.0000515 0.0002183 -0.0000554 0.0007385 0.0000390 0.0007901 0.0000597 0.0012844 -0.0000257 0.0004048 -0.0001145 0.0003333 0.0000373 0.0006590 0.0000765 0.0005919 0.0000958 0.0007680 0.0001182 0.0001829 -0.0000408 0.0007326 0.0000199 0.0004981 0.0000327 0.0003065 -0.0000703 -0.0000361 0.0000323 -0.0001175 0.0001191 -0.0002458 0.0000735 0.0005869 0.0001399 0.0000764 -0.0000930 0.0001728 -0.0000249 -0.0000425 -0.0001354 -0.0000651
-0.0002026 0.0010664 -0.0000499 0.0002400 -0.0000637 0.0007596 0.0000524 0.0007869 0.0000549 0.0013125 -0.0000284 0.0004186 -0.0001187 0.0003532 0.0000260 0.0006860 0.0000738 0.0006124 0.0000974 0.0007831 0.0001131 0.0002121 -0.0000405 0.0007515 0.0000190 0.0005171 0.0000296 0.0003274 -0.0000695 -0.0000117 0.0000283 -0.0000901 0.0001111 -0.0002220 0.0000724 0.0006054 0.0001394 0.0000917 -0.0000921 0.0001912 -0.0000296 -0.0000126 -0.0001446 -0.0000344
-0.0002225 0.0010971 -0.0000513 0.0002672 -0.0000730 0.0007830 0.0000123 0.0008311 0.0000545 0.0013373 -0.0000311 0.0004326 -0.0001246 0.0003762 0.0000226 0.0007125 0.0000711 0.0006350 0.0000969 0.0008017 0.0001076 0.0002463 -0.0000388 0.0007698 0.0000174 0.0005386 0.0000237 0.0003519 -0.0000721 0.0000207 0.0000208 -0.0000557 0.0001031 -0.0001949 0.0000727 0.0006215 0.0001373 0.0001098 -0.0000920 0.0002140 -0.0000356 0.0000234 -0.0001542 0.0000008
-0.0002179 0.0011195 -0.0000514 0.0003000 -0.0000700 0.0008034 -0.0000265 0.0008916 0.0000560 0.0013650 -0.0000348 0.0004488 -0.0001315 0.0004022 0.0000254 0.0007400 0.0000683 0.0006597 0.0000962 0.0008249 0.0001021 0.0002842 -0.0000429 0.0007970 0.0000149 0.0005629 0.0000164 0.0003802 -0.0000775 0.0000575 0.0000141 -0.0000219 0.0000940 -0.0001655 0.0000735 0.0006386 0.0001351 0.0001319 -0.0000918 0.0002374 -0.0000415 0.0000585 -0.0001636 0.0000364
-0.0002220 0.0011497 -0.0000511 0.0003328 -0.0000829 0.0008330 0.0000021 0.0008946 0.0000540 0.0013975 -0.0000343 0.0004607 -0.0001371 0.0004283 0.0000223 0.0007720 0.0000657 0.0006854 0.0000977 0.0008465 0.0000952 0.0003232 -0.0000418 0.0008184 0.0000124 0.0005883 0.0000109 0.0004068 -0.0000832 0.0000954 0.0000095 0.0000074 0.0000862 -0.0001404 0.0000741 0.0006575 0.0001341 0.0001489 -0.0000911 0.0002549 -0.0000464 0.0000800 -0.0001715 0.0000585
-0.0002106 0.0011665 -0.0000512 0.0003491 -0.0000913 0.0008523 -0.0000029 0.0009174 0.0000573 0.0014159 -0.0000357 0.0004681 -0.0001396 0.0004376 0.0000200 0.0007931 0.0000622 0.0007010 0.0000970 0.0008571 0.0000903 0.0003350 -0.0000434 0.0008309 0.0000116 0.0005960 0.0000070 0.0004180 -0.0000829 0.0000969 0.0000018 0.0000197 0.0000772 -0.0001314 0.0000741 0.0006633 0.0001339 0.0001496 -0.0000918 0.0002547 -0.0000505 0.0000807 -0.0001793 0.0000613
-0.0001865 0.0011568 -0.0000519 0.0003483 -0.0000788 0.0008471 0.0000045 0.0009333 0.0000564 0.0014320 -0.0000360 0.0004715 -0.0001422 0.0004395 0.0000226 0.0007963 0.0000607 0.0007083 0.0000975 0.0008593 0.0000869 0.0003328 -0.0000442 0.0008402 0.0000104 0.0005986 0.0000012 0.0004260 -0.0000850 0.0000872 -0.0000022 0.0000201 0.0000691 -0.0001315 0.0000752 0.0006620 0.0001346 0.0001442 -0.0000935 0.0002459 -0.0000530 0.0000698 -0.0001859 0.0000529
-0.0001888 0.0011667 -0.0000521 0.0003355 -0.0000783 0.0008509 0.0000120 0.0009266 0.0000550 0.0014367 -0.0000338 0.0004712 -0.0001451 0.0004361 0.0000219 0.0008035 0.0000590 0.0007128 0.0000977 0.0008565 0.0000809 0.0003242 -0.0000430 0.0008456 0.0000079 0.0006020 -0.0000018 0.0004304 -0.0000871 0.0000781 -0.0000092 0.0000349 0.0000614 -0.0001247 0.0000738 0.0006662 0.0001343 0.0001472 -0.0000939 0.0002475 -0.0000569 0.0000821 -0.0001918 0.0000629
-0.0002077 0.0012065 -0.0000542 0.0003576 -0.0000810 0.0008608 -0.0000293 0.0009595 0.0000586 0.0014488 -0.0000373 0.0004828 -0.0001486 0.0004501 0.0000219 0.0008264 0.0000560 0.0007295 0.0000963 0.0008691 0.0000740 0.0003503 -0.0000465 0.0008623 0.0000059 0.0006165 -0.0000059 0.0004427 -0.0000905 0.0000986 -0.0000141 0.0000601 0.0000543 -0.0001055 0.0000710 0.0006779 0.0001325 0.0001626 -0.0000948 0.0002637 -0.0000612 0.0001071 -0.0001980 0.0000866
-0.0002118 0.0012346 -0.0000559 0.0003864 -0.0000849 0.0008790 -0.0000214 0.0009790 0.0000579 0.0014732 -0.0000396 0.0004959 -0.0001517 0.0004684 0.0000199 0.0008492 0.0000532 0.0007513 0.0000964 0.0008857 0.0000667 0.0003851 -0.0000508 0.0008814 0.0000042 0.0006345 -0.0000103 0.0004586 -0.0000940 0.0001309 -0.0000210 0.0000911 0.0000468 -0.0000795 0.0000679 0.0006932 0.0001285 0.0001858 -0.0000947 0.0002853 -0.0000655 0.0001375 -0.0002047 0.0001169
-0.0001985 0.0012543 -0.0000570 0.0004193 -0.0000938 0.0009050 -0.0000218 0.0009949 0.0000595 0.0014991 -0.0000429 0.0005066 -0.0001543 0.0004821 0.0000159 0.0008762 0.0000509 0.0007685 0.0000955 0.0009011 0.0000613 0.0004091 -0.0000508 0.0008927 0.0000005 0.0006485 -0.0000138 0.0004697 -0.0000941 0.0001455 -0.0000263 0.0001058 0.0000394 -0.0000665 0.0000681 0.0006973 0.0001261 0.0001950 -0.0000957 0.0002909 -0.0000687 0.0001424 -0.0002104 0.0001241
-0.0001819 0.0012604 -0.0000564 0.0004251 -0.0000997 0.0009176 -0.0000432 0.0010208 0.0000594 0.0015100 -0.0000421 0.0005085 -0.0001552 0.0004822 0.0000148 0.0008879 0.0000495 0.0007792 0.0000938 0.0009079 0.0000572 0.0004141 -0.0000511 0.0008996 -0.0000033 0.0006559 -0.0000180 0.0004742 -0.0000934 0.0001412 -0.0000283 0.0001073 0.0000321 -0.0000620 0.0000677 0.0006979 0.0001261 0.0001961 -0.0000965 0.0002892 -0.0000711 0.0001376 -0.0002146 0.0001205
-0.0001599 0.0012516 -0.0000593 0.0004270 -0.0001041 0.0009309 -0.0000788 0.0010576 0.0000555 0.0015178 -0.0000388 0.0005042 -0.0001568 0.0004806 0.0000139 0.0008910 0.0000483 0.0007866 0.0000943 0.0009076 0.0000526 0.0004114 -0.0000539 0.0009066 -0.0000033 0.0006511 -0.0000207 0.0004753 -0.0000942 0.0001317 -0.0000292 0.0001031 0.0000250 -0.0000624 0.0000688 0.0006914 0.0001264 0.0001923 -0.0000976 0.0002805 -0.0000720 0.0001248 -0.0002184 0.0001101
-0.0001480 0.0012388 -0.0000632 0.0004236 -0.0001036 0.0009283 -0.0000965 0.0010709 0.0000560 0.0015187 -0.0000393 0.0005047 -0.0001581 0.0004754 0.0000165 0.0008915 0.0000485 0.0007878 0.0000947 0.0009042 0.0000471 0.0004063 -0.0000560 0.0009091 -0.0000040 0.0006486 -0.0000234 0.0004736 -0.0000944 0.0001183 -0.0000276 0.0001065 0.0000189 -0.0000599 0.0000668 0.0006927 0.0001246 0.0001946 -0.0000990 0.0002817 -0.0000743 0.0001304 -0.0002213 0.0001142
-0.0001567 0.0012406 -0.0000650 0.0004425 -0.0001065 0.0009407 -0.0001017 0.0010801 0.0000566 0.0015301 -0.0000412 0.0005134 -0.0001602 0.0004853 0.0000190 0.0009008 0.0000471 0.0008023 0.0000947 0.0009138 0.0000406 0.0004279 -0.0000604 0.0009214 -0.0000058 0.0006563 -0.0000257 0.0004816 -0.0000938 0.0001308 -0.0000283 0.0001257 0.0000135 -0.0000441 0.0000638 0.0007017 0.0001251 0.0002049 -0.0000992 0.0002948 -0.0000763 0.0001472 -0.0002237 0.0001313
-0.0001508 0.0012402 -0.0000655 0.0004682 -0.0001150 0.0009521 -0.0000922 0.0010616 0.0000534 0.0015516 -0.0000444 0.0005229 -0.0001627 0.0004980 0.0000113 0.0009202 0.0000448 0.0008188 0.0000960 0.0009243 0.0000326 0.0004571 -0.0000607 0.0009305 -0.0000074 0.0006659 -0.0000283 0.0004882 -0.0000938 0.0001443 -0.0000299 0.0001386 0.0000079 -0.0000322 0.0000641 0.0007047 0.0001239 0.0002120 -0.0000995 0.0002989 -0.0000778 0.0001478 -0.0002254 0.0001329
-0.0001396 0.0012259 -0.0000673 0.0004743 -0.0001116 0.0009499 -0.0001030 0.0010491 0.0000458 0.0015594 -0.0000448 0.0005252 -0.0001626 0.0004964 0.0000161 0.0009201 0.0000438 0.0008257 0.0000941 0.0009289 0.0000278 0.0004610 -0.0000568 0.0009293 -0.0000081 0.0006657 -0.0000316 0.0004888 -0.0000938 0.0001379 -0.0000299 0.0001375 0.0000024 -0.0000294 0.0000659 0.0007009 0.0001234 0.0002119 -0.0000993 0.0002948 -0.0000774 0.0001356 -0.0002275 0.0001250
-0.0001121 0.0011958 -0.0000668 0.0004700 -0.0001123 0.0009467 -0.0001035 0.0010418 0.0000463 0.0015559 -0.0000420 0.0005201 -0.0001647 0.0004938 0.0000082 0.0009296 0.0000450 0.0008268 0.0000932 0.0009269 0.0000229 0.0004568 -0.0000597 0.0009305 -0.0000110 0.0006640 -0.0000337 0.0004866 -0.0000914 0.0001197 -0.0000302 0.0001325 -0.0000030 -0.0000338 0.0000687 0.0006917 0.0001259 0.0002016 -0.0000997 0.0002837 -0.0000772 0.0001157 -0.0002285 0.0001083
-0.0000801 0.0011683 -0.0000701 0.0004611 -0.0001148 0.0009422 -0.0001511 0.0010667 0.0000421 0.0015514 -0.0000392 0.0005150 -0.0001630 0.0004820 -0.0000003 0.0009380 0.0000464 0.0008239 0.0000927 0.0009200 0.0000183 0.0004444 -0.0000579 0.0009259 -0.0000127 0.0006565 -0.0000346 0.0004779 -0.0000889 0.0000960 -0.0000296 0.0001220 -0.0000086 -0.0000403 0.0000698 0.0006826 0.0001270 0.0001927 -0.0001012 0.0002683 -0.0000764 0.0000932 -0.0002292 0.0000888
-0.0000762 0.0011452 -0.0000700 0.0004430 -0.0001198 0.0009353 -0.0001410 0.0010499 0.0000333 0.0015506 -0.0000394 0.0005163 -0.0001613 0.0004720 0.0000018 0.0009365 0.0000474 0.0008243 0.0000925 0.0009140 0.0000126 0.0004404 -0.0000607 0.0009296 -0.0000104 0.0006513 -0.0000346 0.0004736 -0.0000884 0.0000890 -0.0000267 0.0001252 -0.0000121 -0.0000347 0.0000702 0.0006838 0.0001270 0.0001982 -0.0001010 0.0002732 -0.0000775 0.0000985 -0.0002283 0.0000908
-0.0000921 0.0011593 -0.0000698 0.0004554 -0.0001148 0.0009329 -0.0001668 0.0010619 0.0000266 0.0015581 -0.0000413 0.0005250 -0.0001613 0.0004794 0.0000015 0.0009495 0.0000483 0.0008340 0.0000916 0.0009201 0.0000065 0.0004607 -0.0000606 0.0009317 -0.0000102 0.0006554 -0.0000349 0.0004785 -0.0000896 0.0001052 -0.0000301 0.0001448 -0.0000146 -0.0000202 0.0000701 0.0006908 0.0001267 0.0002086 -0.0001004 0.0002836 -0.0000776 0.0001039 -0.0002271 0.0000959
-0.0000951 0.0011518 -0.0000683 0.0004592 -0.0001140 0.0009334 -0.0001708 0.0010615 0.0000286 0.0015537 -0.0000374 0.0005215 -0.0001597 0.0004776 0.0000058 0.0009415 0.0000485 0.0008383 0.0000889 0.0009220 0.0000021 0.0004644 -0.0000590 0.0009309 -0.0000137 0.0006558 -0.0000348 0.0004745 -0.0000867 0.0000968 -0.0000291 0.0001421 -0.0000180 -0.0000177 0.0000720 0.0006879 0.0001290 0.0002057 -0.0001016 0.0002806 -0.0000768 0.0000913 -0.0002258 0.0000842
-0.0001030 0.0011367 -0.0000657 0.0004499 -0.0001109 0.0009179 -0.0001521 0.0010432 0.0000291 0.0015412 -0.0000357 0.0005190 -0.0001591 0.0004699 0.0000040 0.0009407 0.0000505 0.0008363 0.0000886 0.0009160 -0.0000020 0.0004548 -0.0000628 0.0009301 -0.0000138 0.0006480 -0.0000337 0.0004660 -0.0000845 0.0000780 -0.0000257 0.0001307 -0.0000201 -0.0000243 0.0000709 0.0006831 0.0001303 0.0001989 -0.0001028 0.0002714 -0.0000750 0.0000687 -0.0002240 0.0000647
-0.0000909 0.0011130 -0.0000685 0.0004380 -0.0001194 0.0009083 -0.0001504 0.0010257 0.0000292 0.0015234 -0.0000339 0.0005128 -0.0001551 0.0004569 -0.0000009 0.0009337 0.0000526 0.0008314 0.0000877 0.0009057 -0.0000040 0.0004351 -0.0000616 0.0009199 -0.0000136 0.0006335 -0.0000345 0.0004541 -0.0000797 0.0000519 -0.0000257 0.0001180 -0.0000215 -0.0000365 0.0000718 0.0006737 0.0001335 0.0001854 -0.0001031 0.0002562 -0.0000727 0.0000412 -0.0002213 0.0000392
-0.0000901 0.0010848 -0.0000671 0.0004150 -0.0001138 0.0008884 -0.0001720 0.0010243 0.0000271 0.0015031 -0.0000331 0.0005082 -0.0001522 0.0004415 0.0000012 0.0009133 0.0000550 0.0008228 0.0000853 0.0008932 -0.0000048 0.0004110 -0.0000613 0.0009087 -0.0000136 0.0006165 -0.0000319 0.0004382 -0.0000750 0.0000205 -0.0000221 0.0001032 -0.0000234 -0.0000462 0.0000721 0.0006639 0.0001356 0.0001759 -0.0001035 0.0002456 -0.0000707 0.0000247 -0.0002188 0.0000243
-0.0001016 0.0010914 -0.0000684 0.0004148 -0.0001093 0.0008733 -0.0001608 0.0009995 0.0000268 0.0014897 -0.0000330 0.0005108 -0.0001521 0.0004421 -0.0000010 0.0009109 0.0000575 0.0008245 0.0000861 0.0008893 -0.0000078 0.0004163 -0.0000609 0.0009066 -0.0000160 0.0006185 -0.0000320 0.0004370 -0.0000755 0.0000236 -0.0000167 0.0001074 -0.0000228 -0.0000419 0.0000719 0.0006678 0.0001385 0.0001804 -0.0001039 0.0002533 -0.0000696 0.0000288 -0.0002158 0.0000277
-0.0001072 0.0010908 -0.0000681 0.0004268 -0.0001185 0.0008797 -0.0001412 0.0009748 0.0000287 0.0014774 -0.0000352 0.0005162 -0.0001535 0.0004513 -0.0000023 0.0009157 0.0000584 0.0008334 0.0000850 0.0008932 -0.0000107 0.0004310 -0.0000618 0.0009106 -0.0000175 0.0006261 -0.0000307 0.0004365 -0.0000733 0.0000355 -0.0000127 0.0001159 -0.0000232 -0.0000317 0.0000721 0.0006724 0.0001391 0.0001890 -0.0001022 0.0002607 -0.0000688 0.0000311 -0.0002127 0.0000295
-0.0001054 0.0010696 -0.0000717 0.0004324 -0.0001226 0.0008687 -0.0001241 0.0009476 0.0000274 0.0014674 -0.0000355 0.0005149 -0.0001511 0.0004472 0.0000020 0.0009126 0.0000599 0.0008340 0.0000845 0.0008890 -0.0000116 0.0004269 -0.0000616 0.0009042 -0.0000171 0.0006181 -0.0000313 0.0004326 -0.0000698 0.0000272 -0.0000081 0.0001078 -0.0000241 -0.0000359 0.0000734 0.0006701 0.0001424 0.0001828 -0.0001013 0.0002541 -0.0000664 0.0000130 -0.0002093 0.0000128
-0.0000903 0.0010414 -0.0000703 0.0004152 -0.0001270 0.0008525 -0.0001190 0.0009383 0.0000233 0.0014521 -0.0000333 0.0005097 -0.0001472 0.0004344 -0.0000032 0.0009045 0.0000617 0.0008294 0.0000837 0.0008770 -0.0000118 0.0004077 -0.0000594 0.0008940 -0.0000180 0.0006060 -0.0000319 0.0004254 -0.0000643 0.0000029 -0.0000030 0.0000927 -0.0000246 -0.0000484 0.0000747 0.0006613 0.0001459 0.0001729 -0.0001004 0.0002394 -0.0000623 -0.0000153 -0.0002051 -0.0000125
-0.0000921 0.0010113 -0.0000710 0.0003922 -0.0001294 0.0008263 -0.0001229 0.0009094 0.0000212 0.0014263 -0.0000295 0.0004997 -0.0001436 0.0004186 -0.0000055 0.0008823 0.0000636 0.0008191 0.0000815 0.0008622 -0.0000101 0.0003786 -0.0000564 0.0008807 -0.0000184 0.0005903 -0.0000303 0.0004123 -0.0000596 -0.0000293 0.0000028 0.0000732 -0.0000238 -0.0000672 0.0000784 0.0006477 0.0001511 0.0001539 -0.0001002 0.0002195 -0.0000577 -0.0000483 -0.0002004 -0.0000421
-0.0000949 0.0009840 -0.0000743 0.0003710 -0.0001302 0.0008098 -0.0001144 0.0009025 0.0000220 0.0013934 -0.0000297 0.0005001 -0.0001407 0.0004098 -0.0000070 0.0008710 0.0000663 0.0008135 0.0000820 0.0008482 -0.0000099 0.0003645 -0.0000597 0.0008772 -0.0000190 0.0005833 -0.0000270 0.0004046 -0.0000554 -0.0000414 0.0000069 0.0000714 -0.0000225 -0.0000709 0.0000776 0.0006464 0.0001538 0.0001513 -0.0000987 0.0002191 -0.0000551 -0.0000525 -0.0001962 -0.0000470
-0.0001256 0.0009861 -0.0000746 0.0003730 -0.0001213 0.0007884 -0.0001144 0.0008841 0.0000171 0.0013784 -0.0000313 0.0005053 -0.0001400 0.0004150 -0.0000080 0.0008658 0.0000677 0.0008157 0.0000818 0.0008435 -0.0000108 0.0003690 -0.0000583 0.0008762 -0.0000178 0.0005814 -0.0000245 0.0004045 -0.0000508 -0.0000399 0.0000112 0.0000744 -0.0000206 -0.0000674 0.0000779 0.0006502 0.0001561 0.0001559 -0.0000984 0.0002263 -0.0000535 -0.0000479 -0.0001927 -0.0000423
-0.0001271 0.0009746 -0.0000709 0.0003748 -0.0001196 0.0007772 -0.0000792 0.0008301 0.0000147 0.0013708 -0.0000356 0.0005152 -0.0001370 0.0004206 -0.0000071 0.0008672 0.0000701 0.0008195 0.0000815 0.0008454 -0.0000097 0.0003788 -0.0000598 0.0008775 -0.0000187 0.0005872 -0.0000225 0.0004065 -0.0000475 -0.0000300 0.0000163 0.0000784 -0.0000185 -0.0000613 0.0000787 0.0006568 0.0001572 0.0001629 -0.0000970 0.0002311 -0.0000516 -0.0000495 -0.0001883 -0.0000441
-0.0001374 0.0009807 -0.0000711 0.0003696 -0.0001248 0.0007767 -0.0000330 0.0007973 0.0000119 0.0013574 -0.0000333 0.0005120 -0.0001344 0.0004172 -0.0000112 0.0008598 0.0000715 0.0008176 0.0000812 0.0008355 -0.0000082 0.0003666 -0.0000609 0.0008769 -0.0000175 0.0005799 -0.0000202 0.0003997 -0.0000433 -0.0000442 0.0000209 0.0000651 -0.0000175 -0.0000701 0.0000803 0.0006543 0.0001607 0.0001547 -0.0000962 0.0002213 -0.0000485 -0.0000700 -0.0001839 -0.0000641
-0.0001694 0.0009969 -0.0000705 0.0003473 -0.0001170 0.0007556 -0.0000375 0.0007805 0.0000108 0.0013359 -0.0000335 0.0005071 -0.0001294 0.0004045 -0.0000069 0.0008432 0.0000743 0.0008081 0.0000807 0.0008189 -0.0000064 0.0003430 -0.0000582 0.0008673 -0.0000177 0.0005668 -0.0000155 0.0003863 -0.0000389 -0.0000709 0.0000257 0.0000479 -0.0000157 -0.0000872 0.0000829 0.0006460 0.0001640 0.0001402 -0.0000954 0.0002044 -0.0000449 -0.0000981 -0.0001795 -0.0000919
-0.0001691 0.0009725 -0.0000693 0.0003192 -0.0001169 0.0007425 -0.0000260 0.0007733 0.0000053 0.0013128 -0.0000316 0.0005014 -0.0001270 0.0003904 -0.0000006 0.0008267 0.0000788 0.0007942 0.0000793 0.0008003 -0.0000045 0.0003141 -0.0000560 0.0008589 -0.0000161 0.0005517 -0.0000149 0.0003786 -0.0000347 -0.0000955 0.0000306 0.0000349 -0.0000127 -0.0000994 0.0000803 0.0006466 0.0001683 0.0001328 -0.0000952 0.0002003 -0.0000421 -0.0001058 -0.0001750 -0.0001013
-0.0001897 0.0009769 -0.0000660 0.0003116 -0.0001213 0.0007446 -0.0000178 0.0007590 0.0000098 0.0012945 -0.0000325 0.0005047 -0.0001234 0.0003905 -0.0000064 0.0008269 0.0000809 0.0007947 0.0000794 0.0007937 -0.0000029 0.0003109 -0.0000555 0.0008626 -0.0000160 0.0005507 -0.0000138 0.0003787 -0.0000330 -0.0000960 0.0000367 0.0000343 -0.0000108 -0.0000987 0.0000799 0.0006518 0.0001727 0.0001348 -0.0000948 0.0002062 -0.0000403 -0.0001022 -0.0001699 -0.0000993
-0.0002042 0.0009901 -0.0000661 0.0003151 -0.0001231 0.0007419 -0.0000252 0.0007710 0.0000076 0.0012876 -0.0000346 0.0005113 -0.0001196 0.0003949 -0.0000028 0.0008247 0.0000822 0.0007993 0.0000792 0.0007918 -0.0000026 0.0003164 -0.0000537 0.0008673 -0.0000157 0.0005530 -0.0000118 0.0003815 -0.0000304 -0.0000852 0.0000402 0.0000376 -0.0000074 -0.0000944 0.0000796 0.0006617 0.0001728 0.0001470 -0.0000934 0.0002170 -0.0000389 -0.0000918 -0.0001660 -0.0000895
-0.0002127 0.0010066 -0.0000634 0.0003222 -0.0001274 0.0007549 -0.0000198 0.0007740 0.0000114 0.0012800 -0.0000390 0.0005216 -0.0001184 0.0004043 -0.0000130 0.0008462 0.0000833 0.0008060 0.0000794 0.0007938 -0.0000005 0.0003250 -0.0000534 0.0008745 -0.0000169 0.0005574 -0.0000104 0.0003865 -0.0000268 -0.0000792 0.0000432 0.0000382 -0.0000048 -0.0000954 0.0000800 0.0006683 0.0001758 0.0001489 -0.0000924 0.0002190 -0.0000363 -0.0001000 -0.0001616 -0.0000969
-0.0002193 0.0010130 -0.0000663 0.0003153 -0.0001274 0.0007487 -0.0000401 0.0007856 0.0000108 0.0012712 -0.0000379 0.0005214 -0.0001165 0.0004015 -0.0000018 0.0008290 0.0000857 0.0008036 0.0000781 0.0007878 0.0000033 0.0003088 -0.0000508 0.0008733 -0.0000169 0.0005530 -0.0000106 0.0003852 -0.0000252 -0.0000931 0.0000460 0.0000248 -0.0000031 -0.0001077 0.0000789 0.0006693 0.0001771 0.0001439 -0.0000907 0.0002086 -0.0000329 -0.0001211 -0.0001580 -0.0001150
-0.0002327 0.0010241 -0.0000665 0.0002963 -0.0001287 0.0007436 -0.0000444 0.0007961 0.0000134 0.0012577 -0.0000356 0.0005178 -0.0001127 0.0003896 -0.0000083 0.0008207 0.0000879 0.0007968 0.0000775 0.0007757 0.0000067 0.0002842 -0.0000483 0.0008737 -0.0000161 0.0005444 -0.0000089 0.0003761 -0.0000195 -0.0001225 0.0000521 0.0000025 -0.0000018 -0.0001260 0.0000772 0.0006695 0.0001807 0.0001328 -0.0000893 0.0001951 -0.0000303 -0.0001398 -0.0001533 -0.0001341
-0.0002447 0.0010355 -0.0000702 0.0002916 -0.0001226 0.0007338 -0.0000606 0.0008207 0.0000136 0.0012527 -0.0000377 0.0005260 -0.0001123 0.0003914 -0.0000098 0.0008279 0.0000910 0.0007980 0.0000800 0.0007702 0.0000101 0.0002765 -0.0000486 0.0008828 -0.0000131 0.0005431 -0.0000075 0.0003802 -0.0000171 -0.0001222 0.0000563 0.0000024 0.0000002 -0.0001274 0.0000771 0.0006760 0.0001832 0.0001389 -0.0000874 0.0002031 -0.0000292 -0.0001342 -0.0001491 -0.0001293
-0.0002569 0.0010763 -0.0000716 0.0003012 -0.0001253 0.0007508 -0.0000473 0.0008288 0.0000161 0.0012612 -0.0000371 0.0005338 -0.0001088 0.0004001 -0.0000028 0.0008292 0.0000932 0.0008064 0.0000792 0.0007778 0.0000135 0.0002838 -0.0000461 0.0008949 -0.0000131 0.0005537 -0.0000045 0.0003888 -0.0000149 -0.0001079 0.0000594 0.0000107 0.0000025 -0.0001211 0.0000759 0.0006941 0.0001871 0.0001503 -0.0000844 0.0002160 -0.0000283 -0.0001202 -0.0001452 -0.0001180
-0.0002250 0.0010721 -0.0000703 0.0003155 -0.0001332 0.0007727 -0.0000330 0.0008561 0.0000147 0.0012803 -0.0000367 0.0005443 -0.0001108 0.0004150 0.0000010 0.0008413 0.0000944 0.0008201 0.0000814 0.0007881 0.0000155 0.0003017 -0.0000440 0.0009116 -0.0000124 0.0005712 -0.0000021 0.0004032 -0.0000161 -0.0000883 0.0000643 0.0000203 0.0000042 -0.0001090 0.0000750 0.0007163 0.0001895 0.0001683 -0.0000832 0.0002352 -0.0000279 -0.0001023 -0.0001418 -0.0001016
-0.0002381 0.0011074 -0.0000732 0.0003360 -0.0001327 0.0007961 -0.0000611 0.0009043 0.0000189 0.0013028 -0.0000373 0.0005545 -0.0001082 0.0004266 -0.0000017 0.0008598 0.0000944 0.0008334 0.0000826 0.0007984 0.0000178 0.0003119 -0.0000399 0.0009252 -0.0000135 0.0005847 -0.0000032 0.0004147 -0.0000143 -0.0000843 0.0000676 0.0000141 0.0000061 -0.0001126 0.0000753 0.0007304 0.0001938 0.0001697 -0.0000819 0.0002375 -0.0000262 -0.0001107 -0.0001382 -0.0001092
-0.0002332 0.0011201 -0.0000723 0.0003289 -0.0001305 0.0008115 -0.0000661 0.0009270 0.0000168 0.0013164 -0.0000372 0.0005611 -0.0001046 0.0004227 0.0000007 0.0008674 0.0000959 0.0008372 0.0000832 0.0007995 0.0000225 0.0002950 -0.0000349 0.0009343 -0.0000102 0.0005821 -0.0000004 0.0004157 -0.0000124 -0.0001000 0.0000695 0.0000002 0.0000056 -0.0001235 0.0000768 0.0007353 0.0001945 0.0001690 -0.0000816 0.0002305 -0.0000239 -0.0001302 -0.0001345 -0.0001281
-0.0002486 0.0011402 -0.0000725 0.0003178 -0.0001308 0.0008239 -0.0001043 0.0009780 0.0000143 0.0013307 -0.0000352 0.0005652 -0.0000998 0.0004123 0.0000024 0.0008748 0.0000995 0.0008345 0.0000841 0.0007963 0.0000254 0.0002735 -0.0000312 0.0009405 -0.0000099 0.0005788 0.0000009 0.0004171 -0.0000124 -0.0001210 0.0000716 -0.0000166 0.0000071 -0.0001406 0.0000771 0.0007412 0.0001977 0.0001643 -0.0000804 0.0002204 -0.0000221 -0.0001449 -0.0001310 -0.0001435
-0.0002345 0.0011579 -0.0000696 0.0003146 -0.0001443 0.0008495 -0.0001051 0.0010183 0.0000183 0.0013446 -0.0000361 0.0005787 -0.0000980 0.0004177 -0.0000069 0.0008991 0.0001015 0.0008424 0.0000835 0.0008055 0.0000282 0.0002756 -0.0000270 0.0009595 -0.0000082 0.0005894 0.0000009 0.0004283 -0.0000112 -0.0001198 0.0000745 -0.0000140 0.0000106 -0.0001408 0.0000765 0.0007580 0.0001979 0.0001783 -0.0000815 0.0002339 -0.0000209 -0.0001364 -0.0001268 -0.0001384
-0.0002357 0.0011938 -0.0000696 0.0003296 -0.0001442 0.0008776 -0.0001141 0.0010569 0.0000256 0.0013689 -0.0000365 0.0005960 -0.0000989 0.0004335 0.0000015 0.0009169 0.0001035 0.0008565 0.0000843 0.0008234 0.0000320 0.0002895 -0.0000256 0.0009833 -0.0000047 0.0006044 0.0000038 0.0004421 -0.0000109 -0.0001039 0.0000746 -0.0000038 0.0000135 -0.0001337 0.0000793 0.0007787 0.0002005 0.0001924 -0.0000812 0.0002521 -0.0000203 -0.0001203 -0.0001229 -0.0001258
-0.0002603 0.0012423 -0.0000672 0.0003496 -0.0001338 0.0009052 -0.0001193 0.0010933 0.0000293 0.0014094 -0.0000363 0.0006150 -0.0000983 0.0004498 0.0000004 0.0009548 0.0001049 0.0008750 0.0000857 0.0008464 0.0000313 0.0003155 -0.0000255 0.0010139 -0.0000034 0.0006289 0.0000053 0.0004613 -0.0000105 -0.0000840 0.0000781 0.0000069 0.0000164 -0.0001229 0.0000777 0.0008069 0.0002016 0.0002138 -0.0000812 0.0002720 -0.0000199 -0.0001070 -0.0001203 -0.0001139
-0.0002657 0.0012757 -0.0000667 0.0003609 -0.0001320 0.0009305 -0.0001202 0.0011119 0.0000284 0.0014476 -0.0000350 0.0006253 -0.0000962 0.0004532 -0.0000011 0.0009832 0.0001064 0.0008864 0.0000862 0.0008628 0.0000327 0.0003182 -0.0000165 0.0010284 -0.0000010 0.0006401 0.0000042 0.0004724 -0.0000111 -0.0000856 0.0000809 -0.0000006 0.0000182 -0.0001296 0.0000794 0.0008248 0.0002046 0.0002168 -0.0000807 0.0002722 -0.0000182 -0.0001174 -0.0001168 -0.0001250
-0.0002411 0.0012871 -0.0000659 0.0003567 -0.0001383 0.0009557 -0.0001587 0.0011778 0.0000340 0.0014769 -0.0000336 0.0006342 -0.0000951 0.0004508 -0.0000019 0.0010060 0.0001080 0.0008914 0.0000878 0.0008726 0.0000378 0.0003041 -0.0000148 0.0010430 -0.0000010 0.0006476 0.0000044 0.0004773 -0.0000145 -0.0000968 0.0000820 -0.0000104 0.0000194 -0.0001432 0.0000820 0.0008347 0.0002084 0.0002119 -0.0000808 0.0002644 -0.0000158 -0.0001361 -0.0001126 -0.0001454
-0.0002367 0.0013092 -0.0000676 0.0003500 -0.0001410 0.0009773 -0.0001682 0.0012280 0.0000392 0.0014995 -0.0000302 0.0006396 -0.0000917 0.0004422 -0.0000024 0.0010187 0.0001098 0.0008924 0.0000867 0.0008803 0.0000407 0.0002852 -0.0000099 0.0010547 0.0000001 0.0006510 0.0000051 0.0004800 -0.0000145 -0.0001197 0.0000852 -0.0000258 0.0000212 -0.0001593 0.0000832 0.0008444 0.0002120 0.0002076 -0.0000814 0.0002592 -0.0000136 -0.0001457 -0.0001086 -0.0001578
-0.0002482 0.0013407 -0.0000669 0.0003558 -0.0001277 0.0009921 -0.0001833 0.0012764 0.0000439 0.0015340 -0.0000283 0.0006534 -0.0000894 0.0004474 0.0000047 0.0010349 0.0001124 0.0009006 0.0000882 0.0008985 0.0000419 0.0002917 -0.0000066 0.0010750 -0.0000004 0.0006674 0.0000073 0.0004912 -0.0000161 -0.0001100 0.0000855 -0.0000198 0.0000247 -0.0001600 0.0000858 0.0008624 0.0002142 0.0002172 -0.0000817 0.0002691 -0.0000124 -0.0001343 -0.0001039 -0.0001519
-0.0002316 0.0013525 -0.0000679 0.0003789 -0.0001325 0.0010229 -0.0001833 0.0013235 0.0000500 0.0015757 -0.0000256 0.0006721 -0.0000883 0.0004611 -0.0000008 0.0010647 0.0001142 0.0009154 0.0000888 0.0009241 0.0000432 0.0003088 -0.0000012 0.0010985 0.0000006 0.0006922 0.0000082 0.0005064 -0.0000208 -0.0000876 0.0000877 -0.0000129 0.0000285 -0.0001547 0.0000848 0.0008879 0.0002153 0.0002329 -0.0000813 0.0002835 -0.0000118 -0.0001150 -0.0001007 -0.0001367
-0.0002334 0.0013963 -0.0000675 0.0004039 -0.0001363 0.0010579 -0.0001919 0.0013494 0.0000636 0.0016137 -0.0000229 0.0006909 -0.0000876 0.0004776 -0.0000064 0.0010937 0.0001147 0.0009348 0.0000902 0.0009538 0.0000450 0.0003303 0.0000007 0.0011269 0.0000006 0.0007211 0.0000104 0.0005244 -0.0000226 -0.0000625 0.0000877 0.0000015 0.0000311 -0.0001441 0.0000865 0.0009152 0.0002163 0.0002513 -0.0000812 0.0003012 -0.0000109 -0.0000958 -0.0000983 -0.0001207
-0.0002253 0.0014313 -0.0000694 0.0004258 -0.0001387 0.0010864 -0.0001926 0.0013798 0.0000669 0.0016574 -0.0000197 0.0007032 -0.0000862 0.0004860 -0.0000039 0.0011138 0.0001162 0.0009435 0.0000917 0.0009756 0.0000469 0.0003356 0.0000029 0.0011429 0.0000005 0.0007395 0.0000122 0.0005325 -0.0000215 -0.0000643 0.0000893 -0.0000032 0.0000339 -0.0001514 0.0000867 0.0009330 0.0002173 0.0002540 -0.0000822 0.0002992 -0.0000095 -0.0001027 -0.0000951 -0.0001316
-0.0002105 0.0014188 -0.0000696 0.0004250 -0.0001329 0.0011000 -0.0001832 0.0013982 0.0000729 0.0016915 -0.0000152 0.0007098 -0.0000848 0.0004822 -0.0000013 0.0011274 0.0001182 0.0009436 0.0000927 0.0009898 0.0000514 0.0003172 0.0000034 0.0011567 0.0000021 0.0007462 0.0000122 0.0005368 -0.0000236 -0.0000792 0.0000925 -0.0000199 0.0000364 -0.0001689 0.0000894 0.0009397 0.0002191 0.0002472 -0.0000834 0.0002876 -0.0000070 -0.0001198 -0.0000912 -0.0001527
-0.0002377 0.0014538 -0.0000713 0.0004181 -0.0001260 0.0011047 -0.0001681 0.0013934 0.0000801 0.0017178 -0.0000105 0.0007140 -0.0000826 0.0004760 0.0000178 0.0011146 0.0001219 0.0009380 0.0000930 0.0009987 0.0000545 0.0002952 0.0000066 0.0011639 0.0000048 0.0007486 0.0000161 0.0005336 -0.0000240 -0.0000973 0.0000942 -0.0000318 0.0000395 -0.0001845 0.0000903 0.0009485 0.0002196 0.0002472 -0.0000844 0.0002822 -0.0000053 -0.0001213 -0.0000876 -0.0001608
-0.0002326 0.0014560 -0.0000713 0.0004260 -0.0001293 0.0011297 -0.0002058 0.0014280 0.0000885 0.0017479 -0.0000100 0.0007272 -0.0000811 0.0004811 0.0000151 0.0011333 0.0001226 0.0009436 0.0000945 0.0010176 0.0000557 0.0003000 0.0000096 0.0011747 0.0000055 0.0007622 0.0000189 0.0005387 -0.0000240 -0.0000937 0.0000972 -0.0000311 0.0000436 -0.0001892 0.0000941 0.0009608 0.0002218 0.0002514 -0.0000844 0.0002857 -0.0000040 -0.0001104 -0.0000842 -0.0001564
-0.0002298 0.0014546 -0.0000688 0.0004378 -0.0001278 0.0011421 -0.0001905 0.0014286 0.0000919 0.0017822 -0.0000087 0.0007407 -0.0000817 0.0004923 0.0000226 0.0011406 0.0001244 0.0009482 0.0000951 0.0010389 0.0000573 0.0003095 0.0000106 0.0011876 0.0000040 0.0007805 0.0000201 0.0005500 -0.0000263 -0.0000791 0.0000995 -0.0000265 0.0000482 -0.0001898 0.0000954 0.0009746 0.0002214 0.0002628 -0.0000846 0.0002946 -0.0000028 -0.0000939 -0.0000816 -0.0001453
-0.0002212 0.0014669 -0.0000652 0.0004514 -0.0001408 0.0011677 -0.0001552 0.0014058 0.0000915 0.0018199 -0.0000074 0.0007511 -0.0000812 0.0005043 0.0000201 0.0011589 0.0001266 0.0009537 0.0000943 0.0010631 0.0000581 0.0003252 0.0000131 0.0011973 0.0000031 0.0008018 0.0000200 0.0005608 -0.0000301 -0.0000638 0.0001021 -0.0000215 0.0000514 -0.0001963 0.0000982 0.0009865 0.0002208 0.0002664 -0.0000866 0.0002953 -0.0000017 -0.0000920 -0.0000794 -0.0001485
-0.0001978 0.0014501 -0.0000638 0.0004501 -0.0001423 0.0011702 -0.0001503 0.0014043 0.0000871 0.0018466 -0.0000062 0.0007553 -0.0000811 0.0005046 0.0000151 0.0011651 0.0001275 0.0009497 0.0000949 0.0010727 0.0000596 0.0003145 0.0000143 0.0011999 0.0000029 0.0008062 0.0000183 0.0005623 -0.0000311 -0.0000752 0.0001043 -0.0000360 0.0000540 -0.0002169 0.0001007 0.0009870 0.0002196 0.0002594 -0.0000882 0.0002811 0.0000003 -0.0001062 -0.0000768 -0.0001662
-0.0002406 0.0014821 -0.0000630 0.0004361 -0.0001339 0.0011638 -0.0001226 0.0013544 0.0000892 0.0018585 -0.0000045 0.0007563 -0.0000771 0.0004948 0.0000111 0.0011609 0.0001282 0.0009405 0.0000921 0.0010784 0.0000615 0.0002941 0.0000166 0.0011963 0.0000038 0.0008007 0.0000202 0.0005533 -0.0000294 -0.0000982 0.0001054 -0.0000532 0.0000573 -0.0002452 0.0001032 0.0009820 0.0002190 0.0002448 -0.0000891 0.0002591 0.0000028 -0.0001276 -0.0000740 -0.0001910
-0.0002285 0.0014586 -0.0000643 0.0004213 -0.0001289 0.0011481 -0.0000902 0.0013094 0.0000905 0.0018619 -0.0000012 0.0007543 -0.0000765 0.0004852 0.0000146 0.0011522 0.0001311 0.0009269 0.0000922 0.0010795 0.0000627 0.0002737 0.0000178 0.0011925 0.0000050 0.0007981 0.0000216 0.0005490 -0.0000296 -0.0001068 0.0001072 -0.0000584 0.0000608 -0.0002610 0.0001030 0.0009828 0.0002170 0.0002451 -0.0000894 0.0002529 0.0000037 -0.0001220 -0.0000715 -0.0001922
-0.0002114 0.0014230 -0.0000636 0.0004250 -0.0001280 0.0011435 -0.0000654 0.0012904 0.0000955 0.0018704 -0.0000020 0.0007602 -0.0000755 0.0004893 0.0000158 0.0011482 0.0001327 0.0009240 0.0000910 0.0010915 0.0000618 0.0002798 0.0000171 0.0011943 0.0000018 0.0008103 0.0000209 0.0005530 -0.0000299 -0.0000948 0.0001098 -0.0000538 0.0000656 -0.0002670 0.0001026 0.0009895 0.0002177 0.0002477 -0.0000888 0.0002547 0.0000037 -0.0001057 -0.0000695 -0.0001824
-0.0002286 0.0014442 -0.0000614 0.0004326 -0.0001255 0.0011378 -0.0001236 0.0013076 0.0001027 0.0018803 -0.0000016 0.0007666 -0.0000766 0.0004991 0.0000189 0.0011399 0.0001336 0.0009244 0.0000903 0.0011052 0.0000622 0.0002895 0.0000166 0.0011963 0.0000012 0.0008194 0.0000213 0.0005594 -0.0000290 -0.0000783 0.0001101 -0.0000459 0.0000696 -0.0002679 0.0001002 0.0010021 0.0002171 0.0002558 -0.0000893 0.0002646 0.0000029 -0.0000833 -0.0000682 -0.0001664
-0.0002482 0.0014414 -0.0000618 0.0004485 -0.0001107 0.0011225 -0.0001179 0.0012845 0.0001013 0.0018960 -0.0000015 0.0007697 -0.0000760 0.0005064 0.0000244 0.0011277 0.0001348 0.0009223 0.0000908 0.0011157 0.0000631 0.0002957 0.0000150 0.0011945 0.0000014 0.0008241 0.0000230 0.0005578 -0.0000297 -0.0000683 0.0001113 -0.0000514 0.0000719 -0.0002793 0.0000994 0.0010050 0.0002167 0.0002504 -0.0000886 0.0002553 0.0000031 -0.0000858 -0.0000684 -0.0001704
-0.0002314 0.0013939 -0.0000649 0.0004437 -0.0001059 0.0010984 -0.0001301 0.0012524 0.0001011 0.0018934 -0.0000001 0.0007628 -0.0000743 0.0004957 0.0000154 0.0011150 0.0001371 0.0009096 0.0000905 0.0011132 0.0000625 0.0002781 0.0000138 0.0011844 -0.0000003 0.0008182 0.0000231 0.0005473 -0.0000334 -0.0000813 0.0001149 -0.0000713 0.0000738 -0.0003033 0.0000954 0.0009992 0.0002146 0.0002383 -0.0000887 0.0002352 0.0000031 -0.0001020 -0.0000685 -0.0001877
-0.0002087 0.0013537 -0.0000651 0.0004257 -0.0001079 0.0010687 -0.0001060 0.0012135 0.0000993 0.0018764 0.0000001 0.0007534 -0.0000739 0.0004806 0.0000142 0.0010818 0.0001404 0.0008900 0.0000902 0.0011016 0.0000668 0.0002434 0.0000135 0.0011644 -0.0000014 0.0008030 0.0000220 0.0005333 -0.0000326 -0.0001072 0.0001177 -0.0000961 0.0000762 -0.0003334 0.0000953 0.0009858 0.0002130 0.0002222 -0.0000893 0.0002123 0.0000039 -0.0001185 -0.0000671 -0.0002066
-0.0002118 0.0013283 -0.0000647 0.0004132 -0.0001070 0.0010388 -0.0001367 0.0012056 0.0001032 0.0018561 0.0000009 0.0007479 -0.0000730 0.0004735 0.0000075 0.0010618 0.0001418 0.0008792 0.0000889 0.0010968 0.0000685 0.0002307 0.0000115 0.0011528 -0.0000040 0.0007992 0.0000219 0.0005277 -0.0000335 -0.0001091 0.0001185 -0.0000992 0.0000807 -0.0003468 0.0000949 0.0009804 0.0002109 0.0002229 -0.0000902 0.0002096 0.0000038 -0.0001116 -0.0000663 -0.0002029
-0.0002269 0.0013258 -0.0000649 0.0004172 -0.0001078 0.0010163 -0.0000882 0.0011505 0.0001006 0.0018460 0.0000009 0.0007460 -0.0000716 0.0004742 -0.0000022 0.0010440 0.0001444 0.0008711 0.0000862 0.0010986 0.0000661 0.0002351 0.0000121 0.0011438 -0.0000048 0.0007982 0.0000220 0.0005250 -0.0000335 -0.0000983 0.0001187 -0.0000979 0.0000852 -0.0003520 0.0000919 0.0009829 0.0002081 0.0002303 -0.0000904 0.0002145 0.0000030 -0.0000971 -0.0000671 -0.0001892
-0.0002215 0.0013129 -0.0000670 0.0004277 -0.0001121 0.0009934 -0.0001066 0.0011339 0.0000943 0.0018415 0.0000001 0.0007449 -0.0000733 0.0004790 -0.0000025 0.0010365 0.0001452 0.0008693 0.0000855 0.0011006 0.0000652 0.0002431 0.0000129 0.0011362 -0.0000079 0.0008035 0.0000205 0.0005248 -0.0000361 -0.0000769 0.0001148 -0.0000845 0.0000890 -0.0003534 0.0000906 0.0009870 0.0002059 0.0002408 -0.0000905 0.0002241 0.0000011 -0.0000796 -0.0000686 -0.0001716
-0.0002110 0.0012938 -0.0000630 0.0004327 -0.0001133 0.0009672 -0.0001324 0.0011177 0.0000946 0.0018272 -0.0000013 0.0007471 -0.0000743 0.0004840 -0.0000092 0.0010348 0.0001465 0.0008702 0.0000821 0.0011065 0.0000654 0.0002521 0.0000132 0.0011286 -0.0000099 0.0008096 0.0000187 0.0005265 -0.0000359 -0.0000608 0.0001131 -0.0000747 0.0000914 -0.0003527 0.0000893 0.0009898 0.0002034 0.0002510 -0.0000902 0.0002322 -0.0000003 -0.0000717 -0.0000713 -0.0001605
-0.0002058 0.0012779 -0.0000613 0.0004248 -0.0001225 0.0009520 -0.0001574 0.0011116 0.0000891 0.0018126 0.0000016 0.0007321 -0.0000753 0.0004771 -0.0000095 0.0010180 0.0001472 0.0008616 0.0000791 0.0010996 0.0000677 0.0002334 0.0000091 0.0011162 -0.0000109 0.0007988 0.0000159 0.0005197 -0.0000336 -0.0000752 0.0001115 -0.0000867 0.0000933 -0.0003705 0.0000904 0.0009781 0.0002019 0.0002452 -0.0000915 0.0002208 -0.0000008 -0.0000902 -0.0000724 -0.0001754
-0.0002151 0.0012352 -0.0000627 0.0004033 -0.0001145 0.0009092 -0.0001550 0.0010829 0.0000825 0.0017821 0.0000031 0.0007154 -0.0000744 0.0004587 -0.0000133 0.0009944 0.0001488 0.0008457 0.0000751 0.0010841 0.0000694 0.0002020 0.0000080 0.0010937 -0.0000137 0.0007786 0.0000143 0.0005064 -0.0000334 -0.0001041 0.0001127 -0.0001084 0.0000957 -0.0003982 0.0000915 0.0009600 0.0002017 0.0002314 -0.0000931 0.0002021 -0.0000011 -0.0001152 -0.0000730 -0.0001974
-0.0002274 0.0012073 -0.0000640 0.0003855 -0.0001018 0.0008612 -0.0001793 0.0010768 0.0000766 0.0017544 0.0000025 0.0007093 -0.0000759 0.0004486 -0.0000159 0.0009751 0.0001506 0.0008359 0.0000726 0.0010720 0.0000693 0.0001864 0.0000069 0.0010816 -0.0000176 0.0007699 0.0000118 0.0005012 -0.0000340 -0.0001102 0.0001109 -0.0001096 0.0000986 -0.0004110 0.0000917 0.0009525 0.0001985 0.0002326 -0.0000912 0.0001982 -0.0000024 -0.0001149 -0.0000755 -0.0001938
-0.0002329 0.0012109 -0.0000656 0.0003852 -0.0001030 0.0008394 -0.0001634 0.0010313 0.0000707 0.0017312 0.0000008 0.0007065 -0.0000787 0.0004482 -0.0000151 0.0009552 0.0001506 0.0008362 0.0000700 0.0010669 0.0000676 0.0001923 0.0000066 0.0010713 -0.0000193 0.0007658 0.0000116 0.0004986 -0.0000338 -0.0001050 0.0001081 -0.0000994 0.0001017 -0.0004134 0.0000884 0.0009555 0.0001969 0.0002412 -0.0000914 0.0002053 -0.0000040 -0.0001058 -0.0000772 -0.0001817
-0.0002517 0.0012089 -0.0000658 0.0003915 -0.0001042 0.0008120 -0.0002041 0.0010405 0.0000654 0.0017113 -0.0000003 0.0007026 -0.0000808 0.0004527 -0.0000168 0.0009460 0.0001495 0.0008423 0.0000683 0.0010656 0.0000666 0.0002023 0.0000017 0.0010714 -0.0000239 0.0007739 0.0000097 0.0005026 -0.0000344 -0.0000900 0.0001071 -0.0000874 0.0001049 -0.0004097 0.0000867 0.0009623 0.0001952 0.0002520 -0.0000908 0.0002177 -0.0000060 -0.0000923 -0.0000797 -0.0001635
-0.0002561 0.0012194 -0.0000648 0.0003996 -0.0001015 0.0007849 -0.0001462 0.0009937 0.0000608 0.0016945 -0.0000003 0.0007008 -0.0000833 0.0004589 -0.0000185 0.0009385 0.0001502 0.0008487 0.0000665 0.0010666 0.0000648 0.0002156 -0.0000006 0.0010729 -0.0000274 0.0007821 0.0000045 0.0005097 -0.0000351 -0.0000728 0.0001026 -0.0000712 0.0001083 -0.0004047 0.0000829 0.0009721 0.0001924 0.0002690 -0.0000923 0.0002360 -0.0000093 -0.0000749 -0.0000831 -0.0001432
-0.0002533 0.0012351 -0.0000696 0.0004184 -0.0001087 0.0007759 -0.0001386 0.0009746 0.0000589 0.0016840 -0.0000026 0.0007028 -0.0000824 0.0004641 -0.0000259 0.0009470 0.0001494 0.0008603 0.0000641 0.0010725 0.0000633 0.0002334 -0.0000007 0.0010729 -0.0000291 0.0007881 0.0000014 0.0005145 -0.0000380 -0.0000544 0.0000997 -0.0000647 0.0001096 -0.0004027 0.0000821 0.0009793 0.0001906 0.0002786 -0.0000937 0.0002417 -0.0000115 -0.0000808 -0.0000872 -0.0001410
